frame_start	frame_end	highbinding	left_cerebral_white_matter	left_cerebellum_white_matter	left_cerebellum_cortex	left_thalamus	left_caudate	left_putamen	left_pallidum	brain_stem	left_hippocampus	left_amygdala	csf	left_accumbens_area	left_ventraldc	left_choroid_plexus	right_cerebral_white_matter	right_cerebellum_white_matter	right_cerebellum_cortex	right_thalamus	right_caudate	right_putamen	right_pallidum	right_hippocampus	right_amygdala	right_accumbens_area	right_ventraldc	right_choroid_plexus	aircavity	skull	vermis	pons	csf_extracerebral	head_extracerebral	ctx_lh_bankssts	ctx_lh_caudalanteriorcingulate	ctx_lh_caudalmiddlefrontal	ctx_lh_cuneus	ctx_lh_entorhinal	ctx_lh_fusiform	ctx_lh_inferiorparietal	ctx_lh_inferiortemporal	ctx_lh_isthmuscingulate	ctx_lh_lateraloccipital	ctx_lh_lateralorbitofrontal	ctx_lh_lingual	ctx_lh_medialorbitofrontal	ctx_lh_middletemporal	ctx_lh_parahippocampal	ctx_lh_paracentral	ctx_lh_parsopercularis	ctx_lh_parsorbitalis	ctx_lh_parstriangularis	ctx_lh_pericalcarine	ctx_lh_postcentral	ctx_lh_posteriorcingulate	ctx_lh_precentral	ctx_lh_precuneus	ctx_lh_rostralanteriorcingulate	ctx_lh_rostralmiddlefrontal	ctx_lh_superiorfrontal	ctx_lh_superiorparietal	ctx_lh_superiortemporal	ctx_lh_supramarginal	ctx_lh_frontalpole	ctx_lh_temporalpole	ctx_lh_transversetemporal	ctx_lh_insula	ctx_rh_bankssts	ctx_rh_caudalanteriorcingulate	ctx_rh_caudalmiddlefrontal	ctx_rh_cuneus	ctx_rh_entorhinal	ctx_rh_fusiform	ctx_rh_inferiorparietal	ctx_rh_inferiortemporal	ctx_rh_isthmuscingulate	ctx_rh_lateraloccipital	ctx_rh_lateralorbitofrontal	ctx_rh_lingual	ctx_rh_medialorbitofrontal	ctx_rh_middletemporal	ctx_rh_parahippocampal	ctx_rh_paracentral	ctx_rh_parsopercularis	ctx_rh_parsorbitalis	ctx_rh_parstriangularis	ctx_rh_pericalcarine	ctx_rh_postcentral	ctx_rh_posteriorcingulate	ctx_rh_precentral	ctx_rh_precuneus	ctx_rh_rostralanteriorcingulate	ctx_rh_rostralmiddlefrontal	ctx_rh_superiorfrontal	ctx_rh_superiorparietal	ctx_rh_superiortemporal	ctx_rh_supramarginal	ctx_rh_frontalpole	ctx_rh_temporalpole	ctx_rh_transversetemporal	ctx_rh_insula	reference
0	15	-6.8568e-11	0	0	0	0	0	0	0	0	0	0	0	0	0	0	1.490992333937069e-12	0	0	0	0	0	0	0	0	0	0	0	0	5.385356161013988e-08	0	0	5.684045356786627e-13	1.061381738054479e-08	0	0	0	0	0	0	0	0	0	0	0	0	0	0	0	0	0	0	0	0	0	0	0	0	0	0	0	0	0	0	0	0	0	0	0	0	0	0	0	0	0	0	0	0	0	0	0	0	0	0	0	0	0	0	0	0	0	0	0	5.947698496905351e-12	0	0	0	0	0	0	0	0	-3.172088e-09
15	30	0.058915093541145	0.04965236783027649	0.02293933741748333	0.02338793873786926	0.07744583487510681	0.09265445172786713	0.02000907622277737	0.0313391275703907	0.02914344519376755	0.1451003849506378	0.005818995647132397	0.05006462708115578	0.0006765837897546589	0.09134989976882935	0.1076723635196686	0.04932498559355736	0.02868719585239887	0.02590022049844265	0.04445962980389595	0.05669932812452316	0.03179172426462173	0.03115091286599636	0.1013571098446846	0.02032628655433655	0.03258194029331207	0.04529013857245445	0.05353734269738197	0.02566166408360004	0.01745757646858692	0.0981731191277504	0.06180567666888237	0.03560926765203476	0.01445607002824545	0.001184919150546193	0.02902595326304436	0.05007915943861008	0.009277574717998505	0.1189673468470573	0.03921008110046387	0.06850859522819519	0.0388072244822979	0.03460130095481873	0.03343000262975693	0.07215630263090134	0.02444746345281601	0.03812072053551674	0.02739058621227741	0.004754202906042337	0.04335828870534897	0.02025159634649754	0.08263597637414932	0.03340902552008629	0.03072248212993145	0.04356445744633675	0.09758275747299194	0.04578461870551109	0.01646009460091591	0.05053531005978584	0.0560261495411396	0.04655364900827408	0.06943980604410172	0.04004281759262085	0.03293179348111153	0.04160067066550255	0.03544435277581215	0.165385514497757	0.07468602806329727	0.1207068786025047	0.1712455302476883	0.01573259569704533	0.0270671658217907	0.009054231457412243	0.06186580285429955	0.02466842345893383	0.05856062844395638	0.1520311236381531	0.02632460929453373	0.01827558316290379	0.02272346243262291	0.05595231801271439	0.0370907224714756	0.06028572842478752	0.04691736027598381	0.1002940684556961	0.02958589233458042	0.0373140312731266	0.0296996533870697	0.03427306562662125	0.06313053518533707	0.05635172501206398	0.05455051362514496	0.07686628401279449	0.06798607110977173	0.03196800872683525	0.04710862413048744	0.02106829546391964	0.03940673917531967	0.01332756411284208	0.0536145456135273	0.005623772740364075	0.1091466099023819	0.022826702333987
30	45	0.70758444070816	0.5502085089683533	0.4266360104084015	0.5721153020858765	0.5707640647888184	0.644836962223053	0.7597998976707458	0.7704488635063171	0.5617789626121521	0.7866044044494629	0.8120325207710266	0.5669779777526855	0.484995573759079	0.5678809881210327	0.3476831018924713	0.5781518220901489	0.5768206715583801	0.615817129611969	0.5678994059562683	0.6595082879066467	0.8274863958358765	0.7089175581932068	0.8020452260971069	0.8995423316955566	1.74944281578064	0.6383916139602661	1.081549167633057	0.3842783868312836	0.3658081591129303	0.6932201385498047	0.5294685959815979	0.8963040113449097	0.3680040240287781	0.6799184679985046	1.010456919670105	0.6178061962127686	0.4714624583721161	1.07373309135437	0.543584406375885	0.5518274307250977	0.5036548376083374	0.704375684261322	0.7566757202148438	0.6260260939598083	0.6047719717025757	0.9577400088310242	0.6885919570922852	0.7279560565948486	0.6405583620071411	0.7823643684387207	0.8245617151260376	0.7069236040115356	0.9531491994857788	0.8201839327812195	0.9767538905143738	0.6955807209014893	0.697686493396759	0.6920265555381775	0.6971784830093384	0.728645384311676	0.6226250529289246	1.125408530235291	0.7520174384117126	0.841150164604187	0.5639564394950867	1.004938125610352	0.8565289378166199	0.8013931512832642	1.089568376541138	0.8346001505851746	0.7176191806793213	0.4495334327220917	0.6131203174591064	0.6998521089553833	0.5820515155792236	0.8367851972579956	0.6288251280784607	1.058394193649292	0.7312994003295898	0.8532322645187378	0.7331422567367554	0.9824045300483704	0.8241071105003357	0.7714305520057678	0.8204035758972168	0.6885145306587219	0.6803262233734131	0.722777783870697	0.6816944479942322	0.5947045087814331	0.6524022221565247	0.8285504579544067	0.6313459277153015	0.6930741667747498	0.6702847480773926	0.8279622197151184	0.6295279264450073	0.823868453502655	0.7618075609207153	1.273991227149963	1.056434631347656	0.5767878592014311
45	60	2.443127155303955	1.73325777053833	1.955670952796936	2.998483180999756	2.669041156768799	1.649604201316833	2.380162477493286	1.110493898391724	2.272844552993774	2.331380605697632	2.325132846832275	2.280807018280029	1.434474945068359	2.285151243209839	2.908010721206665	1.813289284706116	2.009637594223022	2.928310394287109	2.58269214630127	1.815890789031982	2.249213457107544	1.55235767364502	2.707128047943115	1.822166681289673	1.362587571144104	2.156142473220825	4.338991641998291	1.382665872573853	1.465312242507935	2.037383317947388	2.098127603530884	3.904704570770264	1.564939260482788	3.326752185821533	2.250999689102173	2.269643068313599	3.001714468002319	2.791387796401978	2.560059070587158	2.712792873382568	2.519821882247925	3.046859979629517	3.05971097946167	2.473369359970093	2.525555372238159	2.816247701644897	2.699371099472046	2.842262268066406	2.687464714050293	2.399577140808105	2.213827610015869	2.298200607299805	2.42852258682251	2.575834989547729	2.340000152587891	2.440007925033569	2.622699499130249	2.878302812576294	2.350318193435669	2.446421146392822	2.598951816558838	2.992240190505981	2.718317270278931	2.557228088378906	2.596441745758057	3.376157760620117	3.305769443511963	2.361677885055542	2.803030490875244	2.711364269256592	3.014771699905396	2.12662935256958	2.378109455108643	2.319432973861694	2.51800799369812	3.076695680618286	2.825684309005737	2.642103672027588	3.056498289108276	2.613749742507935	2.357003927230835	2.95948052406311	1.948447704315186	2.91489839553833	2.333122730255127	2.515490055084229	2.532182693481445	2.380109786987305	3.101475477218628	2.413265466690063	2.572346687316895	2.615914821624756	2.825544595718384	2.695241689682007	2.659128189086914	3.390312194824219	2.62256121635437	3.344101667404175	2.435166120529175	2.947138071060181	2.905501365661621	3.015706181526184
60	75	3.894464492797852	2.873400688171387	2.680498600006104	4.522181987762451	3.97136402130127	3.674005746841431	3.499114513397217	1.756994843482971	3.687564134597778	4.172957897186279	3.430380582809448	3.593738317489624	2.883723497390747	3.888705015182495	7.824045658111572	2.876693964004517	2.463174343109131	4.664361476898193	4.041759967803955	3.201818943023682	3.425755977630615	2.84791898727417	3.876097917556763	3.909810304641724	2.837283134460449	3.350027799606323	5.811135768890381	2.384924173355103	2.650605916976929	3.880729198455811	3.492460250854492	5.612589836120605	3.02879810333252	3.908268690109253	3.720008850097656	3.33404016494751	4.885706901550293	4.227238178253174	3.680532455444336	3.836956024169922	4.054954528808594	4.508604049682617	4.674487113952637	3.993963718414307	4.828874588012695	4.070827484130859	3.821116924285889	3.380232095718384	3.77538800239563	4.385834217071533	3.211672306060791	3.537930011749268	4.539112091064453	3.762224674224854	4.545924186706543	3.927784442901611	4.24161434173584	3.910616874694824	3.807906866073608	4.025353908538818	3.75330662727356	4.822082996368408	4.355915546417236	5.301438331604004	4.210765361785889	4.740476131439209	4.792148590087891	4.07686185836792	4.15557861328125	3.554125785827637	5.029791355133057	4.632193565368652	3.603624820709229	3.914642095565796	3.348652124404907	3.834088325500488	4.375983715057373	4.342410564422607	5.049469470977783	4.026477336883545	3.676367998123169	4.759437561035156	4.252890586853027	4.017388820648193	3.299619674682617	3.750340700149536	4.584152221679688	4.377347469329834	3.929497241973877	3.79936957359314	4.011501789093018	3.92212438583374	4.006630897521973	3.93628716468811	3.903437376022339	4.49471378326416	3.978558301925659	4.340965747833252	4.18989086151123	5.393513679504395	4.324709415435791	4.732327461242676
75	90	4.988358020782471	4.418859958648682	4.348344326019287	7.412981986999512	5.74666166305542	3.474871158599854	4.868455410003662	4.39768648147583	4.540706634521484	5.562217712402344	4.955451965332031	5.079571723937988	4.590193748474121	4.823154449462891	7.187737941741943	4.492518424987793	4.135933876037598	7.477821826934814	5.715768337249756	4.191201210021973	5.194699764251709	4.395379543304443	5.605992317199707	4.994943141937256	4.695459842681885	4.8209547996521	6.78114128112793	3.714811563491821	4.189782619476318	5.369550228118896	4.247538566589355	8.656194686889648	4.80208158493042	5.63675594329834	5.663928985595703	6.268580436706543	7.101589679718018	6.99594783782959	5.123308181762695	5.692966938018799	5.758810043334961	6.763745784759521	7.861273765563965	5.836956024169922	7.688994884490967	6.037894725799561	5.868481159210205	5.727506637573242	6.043287754058838	6.391690731048584	5.341080188751221	5.290073871612549	6.188236236572266	5.840895652770996	5.828194618225098	5.557817459106445	5.816835403442383	5.01760721206665	5.716659069061279	6.370238304138184	6.173401355743408	7.200152397155762	6.659653663635254	6.267995357513428	5.894477844238281	7.024330615997314	6.173934459686279	6.429079055786133	5.652472019195557	6.025225162506104	8.273604393005371	4.52833890914917	5.879281997680664	5.946368217468262	5.617526531219482	7.442728519439697	7.12739896774292	6.493024826049805	7.672037124633789	6.118120670318604	5.834371566772461	5.370891094207764	5.91028881072998	6.606723308563232	5.912232398986816	5.777459621429443	6.161485195159912	6.963875770568848	5.64330005645752	5.977994441986084	6.200131893157959	5.623349666595459	5.956591129302979	6.201271057128906	5.680630683898926	7.342594146728516	6.109022617340088	7.306679725646973	6.046216487884521	8.733105659484863	6.57958459854126	7.748634576797485
90	105	7.389740943908691	5.663291454315186	5.755975723266602	9.359976768493652	7.870889186859131	6.258917808532715	6.944764137268066	4.980031490325928	6.602538108825684	7.493825912475586	6.390015125274658	6.264089584350586	6.344405651092529	6.758272171020508	7.50951099395752	5.678303241729736	6.063512802124023	9.702377319335938	8.572103500366211	5.900678157806396	6.389359951019287	4.19406270980835	8.045884132385254	7.293174743652344	9.71566104888916	7.067416667938232	12.25163555145264	4.997210502624512	5.687561511993408	8.073617935180664	7.058177947998047	10.47657108306885	6.636396408081055	7.744948863983154	6.889566421508789	7.608189582824707	8.793521881103516	7.721361637115479	7.405682563781738	7.786797046661377	7.550804615020752	8.971285820007324	9.011794090270996	7.539535999298096	8.615950584411621	7.865498542785645	7.815044403076172	7.126545906066895	7.88836669921875	8.226879119873047	6.601532459259033	7.702916145324707	8.941949844360352	7.717478275299072	6.889480113983154	8.133671760559082	8.155203819274902	6.409014225006104	7.929036140441895	7.778976917266846	7.770163059234619	8.303640365600586	7.883046627044678	7.044301509857178	9.090335845947266	9.625504493713379	7.97243070602417	5.552984714508057	6.654390811920166	6.976909637451172	11.11806488037109	9.064206123352051	7.302361965179443	7.245949745178223	7.430278301239014	8.379226684570312	8.913825035095215	7.423774719238281	9.560052871704102	7.3057541847229	7.585943222045898	6.858688354492188	6.746374607086182	8.47739315032959	7.694187641143799	7.588566780090332	8.874369621276855	7.653252124786377	6.813642024993896	7.947492599487305	7.711526870727539	6.77489709854126	7.546420097351074	8.147583961486816	7.711284160614014	9.001508712768555	8.35124397277832	10.10778903961182	6.362038612365723	8.415874481201172	8.586848258972168	9.899161815643311
105	120	8.929428100585938	7.03646993637085	6.900568962097168	11.45291328430176	9.405533790588379	7.43532657623291	8.039814949035645	6.682826042175293	7.985752582550049	8.52971363067627	7.357009887695312	6.892482280731201	9.722418785095215	8.694099426269531	9.965864181518555	7.098489284515381	7.592000007629395	11.35484409332275	9.768327713012695	7.562541961669922	7.583707809448242	5.870570659637451	9.417205810546875	6.287100315093994	8.900081634521484	8.07042121887207	12.0452709197998	6.576003551483154	7.131941318511963	9.191973686218262	7.489909172058105	12.89712715148926	8.299200057983398	8.22047233581543	10.4731273651123	8.540934562683105	11.75591659545898	8.061354637145996	8.742379188537598	9.810072898864746	9.499842643737793	11.53282451629639	12.0823802947998	9.801127433776855	11.41458511352539	9.95261287689209	9.02754020690918	7.455235958099365	9.085165977478027	9.075298309326172	8.711543083190918	10.71618175506592	11.22950267791748	9.504582405090332	8.664265632629395	9.63713550567627	10.19468307495117	8.67750358581543	10.30638313293457	10.40421104431152	10.87751388549805	10.90736770629883	9.747673034667969	11.89702033996582	10.37738704681396	10.59592437744141	10.38615608215332	8.871358871459961	9.020376205444336	9.695088386535645	12.94771957397461	7.654504299163818	9.776620864868164	9.509321212768555	8.083377838134766	10.81165599822998	10.92410564422607	9.799861907958984	11.28452968597412	9.978610992431641	9.272478103637695	8.536450386047363	9.360845565795898	10.49453163146973	11.04719066619873	9.237031936645508	10.42985248565674	10.03779983520508	8.770520210266113	9.620912551879883	10.45443344116211	8.520336151123047	9.889487266540527	10.17395782470703	9.446910858154297	11.3267126083374	9.737664222717285	10.86868381500244	9.002904891967773	12.14702033996582	10.38918209075928	11.87356376647949
120	135	10.21329116821289	8.347136497497559	8.580365180969238	13.05150508880615	10.59201049804688	8.117181777954102	9.372334480285645	7.934255599975586	8.929877281188965	10.92428779602051	10.07314109802246	8.606052398681641	7.671719551086426	9.388677597045898	13.92564010620117	8.243671417236328	8.930919647216797	13.65942001342773	11.00226497650146	8.926551818847656	9.63257884979248	7.604175567626953	10.63315010070801	7.757182598114014	8.873052597045898	10.42189693450928	12.49456310272217	7.24515962600708	8.352189064025879	10.85207462310791	7.944057941436768	14.59845352172852	10.0167760848999	10.44040203094482	9.80553150177002	11.57274055480957	13.09216117858887	10.29258251190186	10.27939987182617	11.21479797363281	10.22052192687988	10.24086952209473	12.98322010040283	11.0493106842041	14.06267929077148	11.42266368865967	10.26126766204834	9.658024787902832	11.34008884429932	11.17038345336914	9.835692405700684	10.5119514465332	13.31771183013916	11.6834659576416	9.348226547241211	11.30375289916992	12.10268402099609	10.57269954681396	11.0075569152832	11.88117504119873	11.79783535003662	12.65791511535645	11.42719554901123	14.67017078399658	10.84259223937988	14.51844882965088	12.46430206298828	11.01333618164062	9.82237720489502	11.21624565124512	15.35723209381104	9.112333297729492	10.039794921875	11.13337421417236	9.723518371582031	12.60718059539795	12.98591613769531	11.04420185089111	13.22534084320068	11.20359992980957	10.42813396453857	11.9926872253418	10.21875858306885	11.55336380004883	11.76740837097168	10.57693481445312	11.88983726501465	11.77929973602295	9.12728214263916	10.80009651184082	11.99425506591797	10.17130947113037	11.47397232055664	12.66927719116211	10.90696144104004	12.44795417785645	11.60326957702637	11.01770973205566	9.404574394226074	12.50372123718262	11.28956985473633	13.89358568191528
135	150	9.447953224182129	8.216490745544434	9.053914070129395	13.7721700668335	10.81666564941406	6.487520217895508	9.86407470703125	8.779923439025879	9.421787261962891	9.680934906005859	8.770697593688965	8.561984062194824	9.423636436462402	8.916897773742676	13.42679023742676	8.252091407775879	9.61945629119873	13.76599216461182	10.63799571990967	7.23521089553833	9.377690315246582	7.301133155822754	11.14148712158203	8.88477897644043	7.761905670166016	10.14462375640869	12.90389728546143	7.365946292877197	9.021063804626465	11.99294281005859	9.204106330871582	14.32200527191162	11.32913494110107	11.73139762878418	9.501385688781738	10.21728229522705	13.10734272003174	9.410426139831543	10.45115852355957	11.32112693786621	10.87282752990723	12.72418594360352	13.91989898681641	9.920495986938477	13.50306797027588	11.08883476257324	10.08034324645996	8.158095359802246	11.75243186950684	10.98321628570557	12.08105564117432	10.34849166870117	14.95695781707764	11.76576709747314	7.700982570648193	10.97420787811279	11.74260425567627	11.96277713775635	11.5995569229126	12.22515392303467	12.35189819335938	11.67041492462158	12.1607666015625	11.56090927124023	10.10741710662842	11.49055957794189	11.16433906555176	9.55040168762207	8.976967811584473	11.23998832702637	15.43139553070068	10.39752960205078	10.30496692657471	11.19781684875488	9.817196846008301	12.74447250366211	13.93467617034912	11.75772857666016	13.60524845123291	11.19485759735107	10.02247714996338	10.75373649597168	9.493589401245117	12.25680255889893	10.30997657775879	11.04239082336426	11.50228691101074	11.07143115997314	9.813450813293457	10.71352577209473	11.81010150909424	9.889039993286133	11.89253234863281	11.91108703613281	11.65085792541504	12.65898036956787	10.77153968811035	11.11920928955078	10.22129821777344	12.99270153045654	11.27189540863037	14.32709169387817
150	165	11.02131462097168	8.890419960021973	9.991044998168945	14.47567939758301	11.48957252502441	9.184175491333008	10.29464912414551	9.54055118560791	9.044988632202148	9.841926574707031	8.629467010498047	8.988577842712402	9.493547439575195	9.450227737426758	13.19363307952881	8.790313720703125	9.49159049987793	14.50539970397949	12.42778491973877	8.159141540527344	10.28369808197021	9.458700180053711	9.134840965270996	8.528229713439941	8.41374683380127	10.00805473327637	11.15511131286621	8.024931907653809	10.01171112060547	11.47480773925781	9.395062446594238	13.95858860015869	12.61701107025146	13.18878555297852	9.331394195556641	11.21328353881836	13.53371524810791	10.58035850524902	12.29806518554688	11.66908740997314	10.98744869232178	13.09056186676025	14.08974361419678	11.50238513946533	14.76421737670898	12.18061351776123	11.07712078094482	11.29428100585938	11.45358943939209	11.52332210540771	11.96271705627441	11.75685787200928	14.06649589538574	12.48337745666504	10.09866046905518	11.90765380859375	12.60809421539307	11.5775203704834	11.96555328369141	12.36299324035645	12.7267484664917	11.89845752716064	12.52756977081299	13.03998279571533	11.77196979522705	15.32161140441895	10.71541690826416	10.60184955596924	9.331573486328125	11.48229122161865	13.9458475112915	9.321120262145996	10.97742080688477	11.28383255004883	10.61007690429688	11.92323589324951	13.62879180908203	11.86777210235596	14.51684379577637	10.75016498565674	10.9277982711792	9.186946868896484	11.57296180725098	13.5889196395874	12.42165184020996	12.37560176849365	12.93802928924561	11.83302783966064	10.33614444732666	12.33887195587158	13.14043998718262	10.07814407348633	12.38553428649902	11.87776279449463	12.24735164642334	12.81613159179688	11.74182319641113	14.27432250976562	10.3730354309082	16.20339012145996	11.34046745300293	15.19511938095093
165	180	12.39962387084961	9.659065246582031	10.32553195953369	15.34989929199219	12.02369785308838	9.554306030273438	13.11743354797363	10.60294342041016	10.13459968566895	10.1486120223999	7.65838098526001	8.708663940429688	11.45425224304199	11.91173458099365	12.54126739501953	9.791721343994141	10.53733921051025	15.81213474273682	12.73859977722168	10.07009983062744	10.91933441162109	7.560283184051514	10.8311824798584	10.7643871307373	12.48058891296387	11.12346076965332	15.34029960632324	8.635455131530762	10.89495658874512	13.42647266387939	9.45681095123291	15.07591152191162	13.93565082550049	13.23105621337891	11.24787139892578	12.60939693450928	16.18772506713867	10.30580043792725	11.49945259094238	13.34001159667969	12.06927490234375	13.75664234161377	15.07411289215088	10.90508556365967	14.90361309051514	11.47305870056152	11.88328838348389	8.877126693725586	12.3752326965332	13.17445278167725	12.34189891815186	12.30054473876953	14.85048675537109	13.00154876708984	11.0541353225708	12.76718902587891	14.30084896087646	10.46966648101807	13.53427410125732	13.77734756469727	13.51475715637207	13.86496925354004	12.95234489440918	12.09592819213867	13.59998798370361	15.03770637512207	12.12808990478516	11.72653961181641	8.69357967376709	13.08728790283203	15.82595157623291	10.64064598083496	12.2280445098877	12.68238258361816	11.20174026489258	11.01803016662598	15.59799098968506	11.80316925048828	16.15129089355469	12.48466110229492	11.23990440368652	11.53305339813232	11.53928756713867	14.9459867477417	13.45600700378418	13.81230354309082	15.08083438873291	13.30391979217529	10.98724365234375	12.19304466247559	14.35134506225586	12.57109069824219	13.40964603424072	13.21099662780762	13.20701789855957	13.45031452178955	13.07792854309082	15.61154747009277	10.23383522033691	13.28161716461182	13.08374786376953	16.36357021331787
180	195	12.45462417602539	9.905295372009277	10.99357604980469	16.04510116577148	12.41344356536865	9.540861129760742	12.5328369140625	11.23836040496826	10.00697422027588	11.25926685333252	8.981715202331543	9.321268081665039	8.140889167785645	9.328066825866699	11.72392177581787	10.21853256225586	10.49849796295166	16.43091201782227	12.86610984802246	10.71095561981201	12.02345848083496	9.918820381164551	10.31331253051758	8.487343788146973	14.57157230377197	11.47749614715576	15.38130664825439	9.003437995910645	11.44432830810547	15.17055988311768	8.899321556091309	15.26754379272461	14.6668643951416	12.60941314697266	10.22599506378174	12.70350170135498	16.28756904602051	10.76688194274902	12.14825439453125	13.47433567047119	12.15649604797363	11.79880905151367	15.85159587860107	11.88150882720947	15.59805011749268	12.55833435058594	13.12663173675537	11.34344387054443	13.17555046081543	14.58297634124756	13.26460552215576	12.13780784606934	14.48069000244141	13.77081394195557	11.56792259216309	13.26837921142578	13.34900283813477	11.37241840362549	14.3198413848877	13.60715770721436	14.11749172210693	14.07455253601074	14.7570104598999	14.65243816375732	12.0029935836792	15.74087619781494	13.33727550506592	12.77453231811523	11.46406173706055	12.62516403198242	14.72705459594727	10.32537937164307	11.25895595550537	14.18821620941162	11.94477081298828	11.72767162322998	16.01745796203613	13.13685989379883	15.63452053070068	13.13101768493652	12.98394966125488	10.1911449432373	13.27437782287598	12.73370170593262	13.36511039733887	14.05740070343018	16.3418025970459	13.97522735595703	12.05873012542725	12.99795627593994	13.54379367828369	12.07463359832764	14.17225742340088	14.27346420288086	13.25984764099121	14.5028076171875	13.38082695007324	14.8401927947998	11.86830043792725	13.7009334564209	12.79862403869629	17.11589050292969
195	210	12.82066059112549	10.3887767791748	11.59535694122314	15.86563873291016	12.30831146240234	8.498805046081543	14.26455020904541	12.91064834594727	10.08668518066406	10.86098766326904	8.664159774780273	9.005565643310547	6.585516452789307	10.89907073974609	10.52469444274902	10.24974155426025	10.60134506225586	16.31007766723633	12.07857513427734	10.72768974304199	13.21247386932373	9.451364517211914	10.89861488342285	8.881136894226074	13.55941486358643	9.020595550537109	11.96565914154053	9.224405288696289	11.56310176849365	14.88712787628174	10.0363655090332	15.00080585479736	15.08024501800537	12.9925365447998	10.72543716430664	13.71951580047607	15.70503807067871	11.10115528106689	12.09573936462402	13.98054695129395	12.5239839553833	10.72082328796387	16.12405204772949	13.07491493225098	15.78894424438477	12.36938858032227	13.41371250152588	12.9657039642334	13.36533355712891	14.68087291717529	13.64365863800049	15.09542560577393	13.5775260925293	14.01058101654053	11.01252937316895	13.90418720245361	13.25672149658203	11.82139015197754	15.10291767120361	13.81486129760742	14.27484893798828	13.94205951690674	14.68104934692383	13.64726734161377	12.40190696716309	15.78800964355469	12.72915744781494	11.79358291625977	11.78802108764648	14.51728916168213	17.75641059875488	11.503005027771	12.85085678100586	13.00063800811768	11.61510372161865	12.39276027679443	16.05280685424805	12.36087703704834	15.68062400817871	13.31155776977539	12.00947666168213	11.22813034057617	14.31024360656738	15.06464004516602	13.20395469665527	12.74800395965576	17.36934280395508	14.11516571044922	10.19537830352783	14.1455602645874	14.66076183319092	12.63087844848633	13.31838321685791	14.90545845031738	14.21346569061279	14.13849067687988	13.61198806762695	19.36922645568848	10.78453636169434	16.58658409118652	12.19189548492432	16.90291881561279
210	225	12.76338291168213	10.59561061859131	11.72970485687256	16.65620994567871	13.23035335540771	10.15481376647949	12.64713191986084	10.5233097076416	10.54531288146973	11.81743144989014	10.10062408447266	8.916360855102539	12.93486595153809	11.95247173309326	14.20429420471191	10.6656379699707	11.12312889099121	16.13491249084473	12.03084468841553	9.743269920349121	13.79107570648193	10.10026073455811	11.08474254608154	9.162717819213867	11.61001110076904	10.67160415649414	13.03707790374756	9.146437644958496	11.97999572753906	14.13220310211182	9.759551048278809	15.00416278839111	15.40311431884766	14.18134212493896	11.58802700042725	13.58782291412354	16.76093101501465	12.0454216003418	13.28910255432129	14.34134578704834	13.01205062866211	13.736008644104	16.14948081970215	12.64903926849365	16.41024017333984	14.11179828643799	12.76867961883545	10.49410915374756	13.53292560577393	15.2307243347168	14.72365093231201	15.18059062957764	16.5208740234375	13.96306324005127	13.37046527862549	13.62552642822266	14.11912822723389	13.14163589477539	14.7670202255249	15.25486278533936	14.5986795425415	14.9017219543457	15.67460536956787	15.11618232727051	12.43567752838135	13.17317008972168	13.27827072143555	13.23293399810791	12.73811149597168	15.22224235534668	16.35224723815918	9.465910911560059	12.84302139282227	13.18701457977295	12.45482349395752	12.92668437957764	16.31578636169434	13.05354976654053	16.00922584533691	14.91268730163574	12.93495178222656	10.52638053894043	12.48257923126221	15.0792875289917	13.45775508880615	14.68151950836182	16.62367057800293	14.40935611724854	11.93811130523682	13.87742805480957	14.91352272033691	12.41365432739258	15.14006805419922	15.16044330596924	14.82970333099365	14.50064468383789	15.69924354553223	14.52301120758057	11.32037353515625	15.32911014556885	12.8394889831543	17.31754302978516
