frame_start	frame_end	highbinding	left_cerebral_white_matter	left_cerebellum_white_matter	left_cerebellum_cortex	left_thalamus	left_caudate	left_putamen	left_pallidum	brain_stem	left_hippocampus	left_amygdala	csf	left_accumbens_area	left_ventraldc	left_choroid_plexus	right_cerebral_white_matter	right_cerebellum_white_matter	right_cerebellum_cortex	right_thalamus	right_caudate	right_putamen	right_pallidum	right_hippocampus	right_amygdala	right_accumbens_area	right_ventraldc	right_choroid_plexus	aircavity	skull	vermis	pons	csf_extracerebral	head_extracerebral	ctx_lh_bankssts	ctx_lh_caudalanteriorcingulate	ctx_lh_caudalmiddlefrontal	ctx_lh_cuneus	ctx_lh_entorhinal	ctx_lh_fusiform	ctx_lh_inferiorparietal	ctx_lh_inferiortemporal	ctx_lh_isthmuscingulate	ctx_lh_lateraloccipital	ctx_lh_lateralorbitofrontal	ctx_lh_lingual	ctx_lh_medialorbitofrontal	ctx_lh_middletemporal	ctx_lh_parahippocampal	ctx_lh_paracentral	ctx_lh_parsopercularis	ctx_lh_parsorbitalis	ctx_lh_parstriangularis	ctx_lh_pericalcarine	ctx_lh_postcentral	ctx_lh_posteriorcingulate	ctx_lh_precentral	ctx_lh_precuneus	ctx_lh_rostralanteriorcingulate	ctx_lh_rostralmiddlefrontal	ctx_lh_superiorfrontal	ctx_lh_superiorparietal	ctx_lh_superiortemporal	ctx_lh_supramarginal	ctx_lh_frontalpole	ctx_lh_temporalpole	ctx_lh_transversetemporal	ctx_lh_insula	ctx_rh_bankssts	ctx_rh_caudalanteriorcingulate	ctx_rh_caudalmiddlefrontal	ctx_rh_cuneus	ctx_rh_entorhinal	ctx_rh_fusiform	ctx_rh_inferiorparietal	ctx_rh_inferiortemporal	ctx_rh_isthmuscingulate	ctx_rh_lateraloccipital	ctx_rh_lateralorbitofrontal	ctx_rh_lingual	ctx_rh_medialorbitofrontal	ctx_rh_middletemporal	ctx_rh_parahippocampal	ctx_rh_paracentral	ctx_rh_parsopercularis	ctx_rh_parsorbitalis	ctx_rh_parstriangularis	ctx_rh_pericalcarine	ctx_rh_postcentral	ctx_rh_posteriorcingulate	ctx_rh_precentral	ctx_rh_precuneus	ctx_rh_rostralanteriorcingulate	ctx_rh_rostralmiddlefrontal	ctx_rh_superiorfrontal	ctx_rh_superiorparietal	ctx_rh_superiortemporal	ctx_rh_supramarginal	ctx_rh_frontalpole	ctx_rh_temporalpole	ctx_rh_transversetemporal	ctx_rh_insula	reference
0	15	0	0	0	0	0	0	0	0	0	0	0	0	0	0	0	0	0	0	0	0	0	0	0	0	0	0	0	0	0	0	0	0	0	0	0	0	0	0	0	0	0	0	0	0	0	0	0	0	0	0	0	0	0	0	0	0	0	0	0	0	0	0	0	0	0	0	0	0	0	0	0	0	0	0	0	0	0	0	0	0	0	0	0	0	0	0	0	0	0	0	0	0	0	0	0	0	0	0	0	0	0	0
15	30	0.044459939002991	0.05836309865117073	0.03494022786617279	0.03644987940788269	0.04930245876312256	0.02880138717591763	0.02351707220077515	0.04764269664883614	0.1133166700601578	0.05186973139643669	0.03166687861084938	0.04489994049072266	0.03314608708024025	0.02369585260748863	0.02765108458697796	0.05404340848326683	0.02927058190107346	0.04431114345788956	0.03022828698158264	0.06883815675973892	0.06424885243177414	0.09100451320409775	0.02212448045611382	0.071576327085495	0.1108968332409859	0.01495244540274143	0.04279305785894394	0.02868141792714596	0.03189104050397873	0.01997227035462856	0.09616532921791077	0.05439124256372452	0.02657819911837578	0.006815642584115267	0.0981067568063736	0.04166258499026299	0.01049720123410225	0.02350462786853313	0.04489833489060402	0.02393901161849499	0.04612427204847336	0.03838728740811348	0.07632342725992203	0.08232591301202774	0.0254990141838789	0.07440880686044693	0.05878822505474091	0.005163687281310558	0.09597025811672211	0.1138007119297981	0.05296459794044495	0.1164879277348518	0.05775681510567665	0.04028177261352539	0.0191360879689455	0.0755525529384613	0.02436873503029346	0.04023462906479836	0.0556403174996376	0.04554181545972824	0.03664793074131012	0.07409301400184631	0.08121205866336823	0.006057934835553169	0.039715476334095	0.0121051836758852	0.1162892878055573	0.1416306644678116	0.05986072868108749	0.09992499649524689	0.0841749981045723	0.04646138474345207	0.04739053919911385	0.04046250134706497	0.06374029070138931	0.05587395280599594	0.05924610793590546	0.03814533352851868	0.06707887351512909	0.09981586039066315	0.09140636026859283	0.07411715388298035	0.02963388524949551	0.04718474298715591	0.03667502850294113	0.1241398528218269	0.03960905969142914	0.02643438242375851	0.007357751484960318	0.05209847912192345	0.07184645533561707	0.1157227382063866	0.03703834116458893	0.04016526788473129	0.04018739610910416	0.08074517548084259	0.04187271371483803	0.03214148804545403	0.05841042846441269	0.0003342016425449401	0.1325792819261551	0.037370022386312
30	45	0.8431105017662049	0.6715971827507019	0.7618782520294189	0.9528232216835022	1.032757163047791	0.7580575346946716	0.9381603002548218	0.57163405418396	1.051419854164124	0.6811760067939758	1.150323867797852	0.8526363968849182	0.9727574586868286	0.9104601144790649	0.9707551598548889	0.6446734070777893	0.6476183533668518	0.8847214579582214	0.8457273244857788	0.5687603354454041	0.798906683921814	0.5650074481964111	1.216830849647522	0.8518822193145752	0.7719446420669556	0.7665362954139709	0.8095176219940186	0.5266594886779785	0.6465855240821838	0.7769355773925781	0.8531763553619385	1.243723034858704	0.5697720050811768	1.003013849258423	1.072884917259216	0.757662832736969	0.7380208969116211	0.8105108141899109	0.7712728381156921	0.7724343538284302	0.6860371232032776	1.039274215698242	0.7714964151382446	1.053547978401184	0.9098590016365051	1.133240222930908	0.9318752884864807	0.8607216477394104	0.8204231262207031	1.163480639457703	1.064240455627441	0.7781667709350586	0.671512246131897	0.8326029181480408	1.068022608757019	0.8976289629936218	0.8187404274940491	1.585989236831665	0.7617360353469849	0.9008707404136658	0.9284951090812683	1.184954881668091	0.786750853061676	0.8946855664253235	1.258067488670349	0.8670377731323242	1.134179472923279	0.8062446713447571	0.909577488899231	0.7248803377151489	0.9279659986495972	0.9337643384933472	0.6931992173194885	0.7985106706619263	0.8068950772285461	1.125555992126465	0.7094464302062988	0.9702889323234558	0.8290901184082031	0.721169114112854	0.9243505597114563	0.5725704431533813	0.821349024772644	0.7832971811294556	0.6394280195236206	0.7030875682830811	0.6251810789108276	0.8594706654548645	1.045193076133728	0.9314932227134705	0.8199549317359924	0.7561389803886414	0.7692512273788452	0.8782526254653931	0.8318445682525635	0.987122118473053	0.8867719173431396	0.5247034430503845	0.6070723533630371	0.6726350784301758	1.343192934989929	0.898604184389114
45	60	2.913650512695312	2.253881692886353	2.676692724227905	3.724086999893188	3.144597768783569	2.681793689727783	2.743427515029907	2.462788343429565	3.300431489944458	3.077827453613281	2.783198118209839	3.270498991012573	5.652290821075439	3.279968976974487	3.168723344802856	2.24001932144165	2.701615333557129	4.483063220977783	3.15727424621582	2.402763366699219	2.824150085449219	3.030903339385986	3.396813631057739	3.253026247024536	2.318245410919189	3.054662227630615	5.463963508605957	2.290464878082275	3.018247365951538	3.006070613861084	3.182218074798584	5.696216583251953	2.606695890426636	2.94576096534729	4.381391048431396	3.479047060012817	2.798310041427612	5.010442733764648	2.856761693954468	3.443260431289673	2.892723798751831	5.754024505615234	3.820871829986572	3.719222784042358	3.88568115234375	2.653781652450562	3.358945846557617	2.353775978088379	3.790505886077881	3.900117158889771	2.921807289123535	3.151275634765625	3.490385293960571	3.259916305541992	3.499779939651489	3.409954071044922	3.630411386489868	3.703992366790771	2.946503877639771	3.019357919692993	3.952377557754517	3.684577703475952	3.014825344085693	2.708343505859375	2.838962078094482	3.861638069152832	4.60962963104248	2.527081489562988	3.395212411880493	3.033022403717041	4.69109058380127	2.649945974349976	2.719274997711182	3.337666273117065	2.889904499053955	4.059242248535156	3.166697025299072	2.987949132919312	3.539698839187622	3.112202167510986	2.978622913360596	3.831843852996826	3.132515430450439	3.233343839645386	3.3148033618927	2.767601728439331	3.111976623535156	3.364251852035522	2.991245746612549	3.056616544723511	3.636855602264404	2.906996250152588	3.025992631912231	3.294528484344482	3.960810422897339	3.795727252960205	3.456917285919189	2.66513991355896	3.315254211425781	5.706624031066895	3.756640672683716	4.018268823623657
60	75	4.444794178009033	3.367662191390991	3.790939331054688	5.585531711578369	5.197593688964844	3.6372971534729	4.322762012481689	3.132310628890991	4.478243350982666	4.524848461151123	3.534229516983032	5.152481555938721	4.847152233123779	4.56645679473877	10.53376960754395	3.283491373062134	3.866577625274658	5.82075023651123	4.482282161712646	3.70148754119873	4.13722562789917	2.744680166244507	5.804540634155273	4.490354537963867	2.712186813354492	3.629044055938721	7.080556392669678	3.505393028259277	4.815819263458252	6.499593734741211	4.542151927947998	7.649662017822266	4.407405376434326	5.329967498779297	5.496109008789062	4.101446628570557	5.210111618041992	5.745212554931641	4.18292760848999	4.908449172973633	4.522966861724854	5.673280239105225	5.947752952575684	4.22954797744751	5.58130931854248	4.422023773193359	4.345314979553223	3.293210744857788	5.233720302581787	5.3184814453125	4.207104682922363	4.640859603881836	5.030951499938965	4.780910015106201	5.349249839782715	4.673572063446045	4.836342811584473	3.70478081703186	4.310898303985596	4.724226951599121	5.62621545791626	5.507949829101562	4.258872985839844	3.424100875854492	4.895955085754395	4.091867923736572	5.749434471130371	4.396608829498291	5.231339931488037	3.918938398361206	5.832406044006348	3.716720581054688	4.285291194915771	4.619608879089355	4.753363609313965	6.028718948364258	4.978167057037354	4.720753192901611	4.921230316162109	3.743033647537231	4.09934663772583	4.445574760437012	4.749847888946533	4.513674736022949	3.9979567527771	4.189572334289551	5.135181427001953	4.371420860290527	4.407164573669434	4.623130798339844	5.402469158172607	4.719505310058594	4.461765766143799	4.226726531982422	5.879836082458496	5.441751003265381	4.671489715576172	3.474431276321411	4.427433490753174	6.506343364715576	5.374484539031982	5.559695482254028
75	90	5.26550817489624	4.401970863342285	5.07215404510498	7.161910533905029	5.94159460067749	4.343554019927979	5.02775239944458	5.779439926147461	6.141651153564453	5.804959774017334	5.927950859069824	5.67346715927124	7.121630668640137	4.832689762115479	9.349446296691895	4.319652080535889	4.472041130065918	7.500522136688232	5.908070087432861	5.126718521118164	4.520757675170898	4.347975730895996	6.393213272094727	5.336896896362305	4.453863620758057	4.889976024627686	10.46380043029785	5.056100368499756	6.481461048126221	7.04706859588623	4.508520603179932	9.339282035827637	6.161891460418701	6.710982322692871	5.896564960479736	5.896340370178223	6.029021739959717	5.500068187713623	5.404290199279785	6.674628257751465	6.119571685791016	7.346822261810303	7.47303295135498	5.797370433807373	7.144924640655518	6.108727931976318	6.057791709899902	5.272735595703125	6.231778144836426	7.326554298400879	6.964144706726074	5.94287109375	7.242504596710205	6.019332408905029	5.508551597595215	6.00364875793457	6.254696369171143	6.143037796020508	5.355518817901611	5.890793323516846	7.157312393188477	7.228177547454834	6.230508804321289	5.152548789978027	6.086181640625	6.298403263092041	7.089439392089844	5.717497825622559	5.414575576782227	5.243306159973145	8.442766189575195	5.591053009033203	5.604708671569824	6.167671203613281	5.411105632781982	7.49183177947998	6.371135711669922	5.92837381362915	6.915968418121338	5.668243885040283	6.039056777954102	5.672329425811768	6.144039154052734	6.577755928039551	5.248644828796387	5.294684886932373	6.26236629486084	5.730896472930908	6.061828136444092	5.716609954833984	6.244866371154785	6.039278030395508	5.489505767822266	5.74864387512207	6.709234237670898	6.542438507080078	6.39621114730835	6.112246036529541	4.345149517059326	7.915520191192627	6.545947551727295	7.260359287261963
90	105	7.157394409179688	5.905777454376221	6.861863136291504	9.355286598205566	7.747348785400391	5.533885478973389	7.004754543304443	5.318716049194336	7.254105567932129	7.959670066833496	6.516466617584229	7.589309215545654	8.428091049194336	7.47999095916748	10.28314399719238	5.852916717529297	6.548826694488525	9.485278129577637	7.66661548614502	6.267948627471924	7.22691535949707	5.434676647186279	7.859139919281006	6.985855579376221	7.436176300048828	7.633862018585205	13.95889854431152	6.681307315826416	8.658568382263184	9.187094688415527	7.629581928253174	11.91509819030762	8.330012321472168	8.701713562011719	8.264123916625977	7.849555015563965	8.891288757324219	8.549787521362305	7.401383876800537	9.25413990020752	7.711797714233398	8.188572883605957	10.33705043792725	7.848474502563477	9.449987411499023	8.486188888549805	8.091128349304199	6.388248920440674	7.158581733703613	8.634586334228516	8.284177780151367	8.360026359558105	10.03072929382324	7.955727577209473	8.00593376159668	8.013229370117188	8.231268882751465	7.567155361175537	7.405051231384277	7.946743488311768	9.070219993591309	8.786660194396973	8.454001426696777	4.631449222564697	7.380114555358887	7.630382537841797	9.095074653625488	7.993852138519287	9.091211318969727	7.904620170593262	10.66701507568359	6.260200977325439	7.098323345184326	8.486113548278809	6.611781120300293	9.850215911865234	8.46694278717041	8.06037425994873	8.927916526794434	7.515500545501709	8.105495452880859	6.883172035217285	7.153021335601807	9.055683135986328	8.615821838378906	8.558774948120117	9.876357078552246	8.763545989990234	7.76570463180542	7.742989063262939	8.429948806762695	8.562877655029297	8.263115882873535	7.958484649658203	9.772475242614746	8.999746322631836	7.550953388214111	9.44044303894043	5.460105419158936	12.53818225860596	8.361119270324707	9.310111045837402
105	120	8.89451789855957	7.623634338378906	8.252435684204102	11.74072551727295	10.23442363739014	7.264675617218018	7.582544326782227	7.036494255065918	10.09831142425537	9.612336158752441	7.647363185882568	9.670803070068359	7.002286434173584	9.587839126586914	11.56983184814453	7.686991214752197	8.017239570617676	12.79432010650635	10.04216957092285	7.837045669555664	8.828856468200684	7.436019420623779	10.6299467086792	7.67913818359375	8.391552925109863	9.481525421142578	18.85040283203125	8.631075859069824	11.01342964172363	11.50967407226562	8.412479400634766	14.91835308074951	10.73420429229736	9.46965217590332	9.236013412475586	10.73966121673584	11.1970911026001	9.087055206298828	8.959172248840332	11.43457794189453	8.927475929260254	11.70881366729736	13.60716342926025	9.668336868286133	11.25675678253174	10.5604362487793	9.919509887695312	8.970357894897461	10.56095123291016	11.6719274520874	10.38599014282227	9.976572036743164	11.8809700012207	10.77038669586182	10.50706481933594	10.01368713378906	10.37145137786865	9.497259140014648	9.588712692260742	9.897616386413574	12.5308198928833	11.66490077972412	11.35318470001221	8.727949142456055	9.455864906311035	13.70439720153809	9.929817199707031	10.43793487548828	9.903742790222168	10.56723403930664	12.2074728012085	8.197497367858887	8.433841705322266	10.81302833557129	8.423916816711426	11.36256217956543	11.66717624664307	9.257352828979492	12.27808952331543	9.279518127441406	9.866706848144531	7.64244556427002	10.09798431396484	11.49497127532959	10.87077522277832	9.059928894042969	12.43641376495361	10.36110973358154	11.07717323303223	10.17656230926514	9.749337196350098	8.770766258239746	10.13062286376953	9.496094703674316	12.01331043243408	11.0023365020752	10.10481452941895	8.835606575012207	8.489293098449707	10.69443893432617	9.880475044250488	12.21352958679199
120	135	10.28000068664551	8.069087982177734	8.971900939941406	14.08531665802002	10.80942249298096	9.408655166625977	10.17301273345947	9.033052444458008	9.59792423248291	10.93962001800537	9.075186729431152	10.49077224731445	10.42257213592529	10.92810344696045	14.90680027008057	8.511932373046875	8.683913230895996	14.63609790802002	11.94862842559814	7.835402011871338	9.26048755645752	8.727657318115234	11.44478607177734	9.12471866607666	8.322593688964844	9.348612785339355	15.8010721206665	9.774852752685547	12.6137866973877	13.520583152771	9.422945022583008	16.51484298706055	12.48435115814209	11.60925483703613	9.571779251098633	11.21546363830566	11.67006587982178	10.32693958282471	9.835685729980469	13.23319816589355	10.32946109771729	12.83010387420654	14.37310886383057	11.59290313720703	12.02256679534912	11.42477607727051	10.56752681732178	8.064790725708008	11.05097007751465	12.18371105194092	10.68244457244873	12.21285438537598	13.75766372680664	12.34191703796387	8.686118125915527	11.20728969573975	10.2034912109375	11.02694797515869	10.57198238372803	11.1649112701416	13.72839450836182	12.49038410186768	11.40953826904297	9.589504241943359	10.95856380462646	15.66494274139404	11.80178833007812	10.07557487487793	13.58640193939209	11.41748237609863	15.63623523712158	7.897140979766846	9.930027008056641	11.71680068969727	9.873342514038086	13.0987548828125	12.52742385864258	10.05759429931641	13.2293643951416	10.48617744445801	10.74276161193848	9.416316986083984	11.43071269989014	14.70780944824219	10.75404167175293	10.44173812866211	13.08414649963379	11.15764617919922	10.02750205993652	11.70483875274658	12.85762119293213	10.35614681243896	11.60495281219482	11.19180011749268	14.29506778717041	11.96957302093506	11.94329357147217	11.22413444519043	8.969884872436523	12.83084487915039	11.69228267669678	14.47480630874634
135	150	10.53317928314209	9.130578994750977	9.995722770690918	15.30347442626953	12.21841239929199	8.685229301452637	11.86698150634766	11.47390460968018	11.14989948272705	12.32776641845703	11.73059463500977	11.89314651489258	9.786013603210449	12.12829875946045	16.91729164123535	9.169486999511719	9.630582809448242	15.70990753173828	11.91682529449463	6.715676307678223	10.95887851715088	10.48813247680664	13.38255786895752	11.59035778045654	9.273492813110352	10.64594554901123	16.72529029846191	11.22707176208496	14.19418239593506	16.50043678283691	8.74317455291748	18.30249404907227	14.56450843811035	13.45583724975586	11.30554294586182	12.03990268707275	13.4278678894043	12.47543239593506	11.08943557739258	14.81750297546387	11.8300838470459	12.96400260925293	16.83547782897949	12.26124000549316	15.15995025634766	12.16445159912109	12.17440509796143	10.66385746002197	12.07424640655518	13.6972131729126	12.50368309020996	11.03490829467773	16.07916831970215	13.15133285522461	11.84880542755127	13.20621395111084	12.4261531829834	10.29761600494385	12.91191291809082	12.41753959655762	15.45792961120605	14.58222389221191	13.63476657867432	9.627955436706543	11.62167263031006	13.89273929595947	12.3220682144165	12.79696273803711	10.02562141418457	13.07614135742188	16.20580863952637	8.257466316223145	10.95449447631836	13.55598163604736	10.07248115539551	13.02574348449707	13.48586273193359	11.10816383361816	14.60841941833496	9.856659889221191	12.30663776397705	12.11042404174805	12.98452472686768	16.19770431518555	11.44383239746094	13.07144832611084	14.13518810272217	13.34859275817871	11.26667213439941	12.80123424530029	14.08229923248291	10.34830188751221	12.50898742675781	13.02337074279785	14.81854343414307	14.11007595062256	12.6586971282959	10.93860912322998	10.93652534484863	17.12312889099121	12.9112606048584	15.44211196899414
150	165	10.32795333862305	9.338851928710938	10.3210973739624	15.08816719055176	12.92473411560059	8.776899337768555	10.47003269195557	8.634097099304199	10.09933280944824	12.97985935211182	9.607240676879883	11.51592540740967	13.51160335540771	10.896653175354	16.42877006530762	9.406331062316895	9.603381156921387	15.7636661529541	11.24212455749512	8.665111541748047	9.569512367248535	9.206721305847168	11.87347221374512	8.252479553222656	10.76739406585693	11.73183536529541	17.70820426940918	11.48059368133545	14.6499195098877	15.09193229675293	10.52147674560547	17.24380874633789	15.47893905639648	12.97170639038086	10.47244358062744	12.95461177825928	15.40073871612549	13.72713565826416	11.80557441711426	15.18686103820801	11.91444110870361	14.9957275390625	16.3298511505127	11.34439468383789	15.53771018981934	11.48620128631592	11.84239387512207	10.26677322387695	11.07038307189941	14.11044979095459	14.2219877243042	13.51722621917725	15.81002521514893	13.40619468688965	11.22990226745605	13.8426399230957	13.40155601501465	9.659797668457031	13.90412998199463	12.5877513885498	15.6004638671875	14.3866548538208	13.28506946563721	9.244768142700195	11.50775527954102	14.96270751953125	11.05741500854492	13.12898349761963	9.745445251464844	12.67416286468506	17.6589469909668	8.438187599182129	10.76041889190674	13.59689331054688	11.23061275482178	12.39576148986816	14.611008644104	10.91456508636475	13.97537231445312	10.13227939605713	12.35999774932861	9.720150947570801	11.2785177230835	13.9783296585083	12.99848937988281	13.60876750946045	15.6833553314209	13.49234390258789	11.60594367980957	13.50376224517822	13.41136455535889	10.65239334106445	12.62507915496826	12.97241020202637	15.0505256652832	13.49220085144043	12.93552207946777	11.7722864151001	9.550235748291016	16.12722587585449	12.60846900939941	15.61046314239502
165	180	10.46165084838867	9.606574058532715	10.75271129608154	15.35409832000732	11.79295253753662	8.54932689666748	11.27032089233398	9.101582527160645	10.06825828552246	11.68027591705322	10.70481204986572	10.89490413665771	8.68586254119873	10.80137729644775	14.09813785552979	9.692644119262695	9.869246482849121	16.00514793395996	11.32594013214111	8.754291534423828	9.63202953338623	9.17868709564209	11.53359603881836	10.75236701965332	13.19106197357178	11.51690673828125	16.16023635864258	11.30849361419678	14.7711935043335	13.35923194885254	10.60548305511475	16.37715339660645	15.9036169052124	13.85370349884033	11.07613468170166	13.06780433654785	14.85209178924561	12.37609004974365	11.81126308441162	15.81107139587402	12.94806385040283	13.64432334899902	17.2255859375	11.92921447753906	16.0821704864502	11.81969165802002	13.44566440582275	10.76601219177246	13.78421497344971	14.28635025024414	11.77195072174072	13.19763851165771	14.49386501312256	14.94570350646973	12.55206394195557	13.88664150238037	13.14228820800781	12.98497200012207	13.31506061553955	12.75292205810547	15.47004318237305	14.1232385635376	13.65876483917236	11.73148250579834	10.84554481506348	15.28073978424072	12.19709300994873	13.30993366241455	12.49328517913818	12.73826026916504	16.68839073181152	9.495134353637695	12.15284252166748	13.06621074676514	11.22492218017578	12.82930850982666	15.33167743682861	11.81958675384521	14.36035060882568	11.54637622833252	12.96891307830811	10.07508945465088	11.83965873718262	13.66627311706543	11.73642635345459	11.76447105407715	15.74199676513672	13.29523849487305	11.92834186553955	13.12054443359375	13.93580055236816	10.95246505737305	13.26372623443604	12.27168560028076	14.65927219390869	13.46488761901855	13.20875835418701	10.44513893127441	9.282910346984863	14.93320846557617	11.25214004516602	15.97031879425049
180	195	11.29116249084473	9.921247482299805	11.2580099105835	15.39936637878418	11.88079261779785	9.461909294128418	12.89275169372559	9.870541572570801	10.51141452789307	10.42678070068359	11.40269756317139	10.88387680053711	11.15913486480713	10.9192361831665	15.2670783996582	9.914420127868652	10.53366565704346	16.00918579101562	10.96394157409668	8.659382820129395	11.53814125061035	10.4457311630249	12.03231430053711	8.459497451782227	8.99134635925293	12.02894592285156	13.70365428924561	11.08666229248047	14.68936347961426	15.5822582244873	10.51062679290771	15.76683521270752	16.25931549072266	14.49811458587646	14.64188671112061	12.35854530334473	15.28662872314453	10.05580711364746	11.45219612121582	17.24640274047852	13.55685615539551	12.55909729003906	17.90243339538574	12.24051952362061	14.898193359375	12.6914758682251	13.28038120269775	9.908759117126465	14.10890865325928	14.2072057723999	12.43990039825439	11.87572574615479	15.3489236831665	14.08761882781982	12.94256591796875	13.718092918396	13.42189788818359	10.66062259674072	13.89561462402344	12.59593200683594	14.41790580749512	13.93067455291748	14.91737937927246	10.08283996582031	12.4539623260498	12.94108581542969	11.97909641265869	13.60801792144775	10.66900825500488	13.32505893707275	15.9041748046875	7.99922513961792	10.96350288391113	13.9236946105957	10.92652893066406	12.35697650909424	14.81029224395752	12.24589252471924	14.73025321960449	12.71101951599121	12.59930419921875	11.53163528442383	12.23754119873047	14.32099723815918	11.84286689758301	12.51389503479004	14.24079418182373	13.64120292663574	11.66534900665283	13.08721923828125	13.23202514648438	11.9030065536499	13.74591064453125	13.02705383300781	15.388258934021	13.394944190979	13.49706268310547	13.72701072692871	9.800047874450684	13.65433120727539	11.19150352478027	16.12793350219727
195	210	11.40503787994385	10.05809211730957	11.05399417877197	15.76560211181641	12.81145000457764	10.33638668060303	9.915079116821289	11.30633640289307	10.81117057800293	11.45514488220215	9.326442718505859	10.88654327392578	10.42480278015137	12.1021614074707	14.0179500579834	9.896627426147461	10.67739295959473	15.70657062530518	12.95012283325195	9.046165466308594	11.27948951721191	10.75374603271484	12.06968116760254	8.431221008300781	10.31132221221924	9.606446266174316	15.24792194366455	10.73375988006592	14.49097633361816	16.92721748352051	10.413330078125	15.48567962646484	16.41024971008301	16.11684417724609	12.52472019195557	12.8698263168335	15.72677898406982	10.63802719116211	13.09254360198975	15.66500949859619	12.36353874206543	13.58649158477783	16.71535301208496	12.7411060333252	15.74555110931396	12.10277843475342	13.24495124816895	9.916473388671875	12.37422275543213	15.04417419433594	13.46244049072266	14.17294216156006	15.17663478851318	14.75993919372559	13.21096992492676	13.40234565734863	13.53031635284424	11.58285999298096	13.40407657623291	13.17515754699707	15.43271827697754	14.94945907592773	14.00521278381348	14.02964305877686	12.54237937927246	14.23502349853516	11.47676277160645	12.17292213439941	11.33207702636719	13.11392021179199	15.77792739868164	8.255710601806641	10.80844879150391	14.42946720123291	11.66323566436768	10.93561458587646	15.13400459289551	11.43690299987793	14.203293800354	11.17378616333008	13.23970699310303	9.700533866882324	12.42562007904053	14.82380676269531	13.60398292541504	12.70251560211182	15.52480125427246	13.7918586730957	10.82192134857178	13.153489112854	13.22891044616699	11.74137401580811	13.90171527862549	13.07236957550049	15.13910865783691	13.23778915405273	13.86880683898926	12.43622779846191	9.62950611114502	10.50913619995117	12.45703029632568	16.16123962402344
210	225	11.48654079437256	10.2248010635376	12.10111045837402	15.71912479400635	12.09146690368652	8.986271858215332	12.06518363952637	10.16757202148438	10.5814208984375	11.42145442962646	10.8809757232666	9.387887954711914	10.39162731170654	12.12478160858154	13.53006744384766	10.13193798065186	10.79427242279053	15.45900917053223	11.71468734741211	8.207018852233887	12.39831924438477	9.782035827636719	11.65730571746826	8.348712921142578	11.46775913238525	10.10868263244629	15.43597793579102	10.84000205993652	14.33492374420166	13.68125915527344	9.836385726928711	15.02564144134521	16.55647277832031	14.54150772094727	12.23148059844971	13.70866298675537	15.21529197692871	10.88352966308594	12.9479866027832	15.56723880767822	12.52006340026855	13.40047836303711	16.63570404052734	12.76788711547852	14.89877223968506	12.11104106903076	13.00975608825684	11.32865142822266	13.05209445953369	13.93469429016113	13.74141311645508	14.37213039398193	15.3232536315918	14.74086856842041	11.89601421356201	14.40421485900879	13.77413940429688	13.00327682495117	14.43402290344238	13.3997631072998	15.27783679962158	14.43240642547607	14.17969417572021	10.96769523620605	11.5213041305542	15.51302814483643	13.54276657104492	14.41941547393799	9.86827278137207	13.30718231201172	17.15088653564453	8.569822311401367	11.97634315490723	13.92970657348633	11.64759063720703	11.78693675994873	15.46593952178955	12.20776844024658	14.12938404083252	11.26916217803955	12.46090126037598	10.05661201477051	12.01184368133545	13.39161777496338	13.48129653930664	12.8804931640625	14.96746349334717	13.82742691040039	12.35277080535889	13.77673721313477	14.31291675567627	10.26000690460205	13.26174545288086	12.57486248016357	15.48175811767578	13.78943920135498	13.28986930847168	12.08229160308838	10.32012557983398	14.52449607849121	12.06974792480469	16.05778551101685
