frame_start	frame_end	highbinding	left_cerebral_white_matter	left_cerebellum_white_matter	left_cerebellum_cortex	left_thalamus	left_caudate	left_putamen	left_pallidum	brain_stem	left_hippocampus	left_amygdala	csf	left_accumbens_area	left_ventraldc	left_choroid_plexus	right_cerebral_white_matter	right_cerebellum_white_matter	right_cerebellum_cortex	right_thalamus	right_caudate	right_putamen	right_pallidum	right_hippocampus	right_amygdala	right_accumbens_area	right_ventraldc	right_choroid_plexus	aircavity	skull	vermis	pons	csf_extracerebral	head_extracerebral	ctx_lh_bankssts	ctx_lh_caudalanteriorcingulate	ctx_lh_caudalmiddlefrontal	ctx_lh_cuneus	ctx_lh_entorhinal	ctx_lh_fusiform	ctx_lh_inferiorparietal	ctx_lh_inferiortemporal	ctx_lh_isthmuscingulate	ctx_lh_lateraloccipital	ctx_lh_lateralorbitofrontal	ctx_lh_lingual	ctx_lh_medialorbitofrontal	ctx_lh_middletemporal	ctx_lh_parahippocampal	ctx_lh_paracentral	ctx_lh_parsopercularis	ctx_lh_parsorbitalis	ctx_lh_parstriangularis	ctx_lh_pericalcarine	ctx_lh_postcentral	ctx_lh_posteriorcingulate	ctx_lh_precentral	ctx_lh_precuneus	ctx_lh_rostralanteriorcingulate	ctx_lh_rostralmiddlefrontal	ctx_lh_superiorfrontal	ctx_lh_superiorparietal	ctx_lh_superiortemporal	ctx_lh_supramarginal	ctx_lh_frontalpole	ctx_lh_temporalpole	ctx_lh_transversetemporal	ctx_lh_insula	ctx_rh_bankssts	ctx_rh_caudalanteriorcingulate	ctx_rh_caudalmiddlefrontal	ctx_rh_cuneus	ctx_rh_entorhinal	ctx_rh_fusiform	ctx_rh_inferiorparietal	ctx_rh_inferiortemporal	ctx_rh_isthmuscingulate	ctx_rh_lateraloccipital	ctx_rh_lateralorbitofrontal	ctx_rh_lingual	ctx_rh_medialorbitofrontal	ctx_rh_middletemporal	ctx_rh_parahippocampal	ctx_rh_paracentral	ctx_rh_parsopercularis	ctx_rh_parsorbitalis	ctx_rh_parstriangularis	ctx_rh_pericalcarine	ctx_rh_postcentral	ctx_rh_posteriorcingulate	ctx_rh_precentral	ctx_rh_precuneus	ctx_rh_rostralanteriorcingulate	ctx_rh_rostralmiddlefrontal	ctx_rh_superiorfrontal	ctx_rh_superiorparietal	ctx_rh_superiortemporal	ctx_rh_supramarginal	ctx_rh_frontalpole	ctx_rh_temporalpole	ctx_rh_transversetemporal	ctx_rh_insula	reference
0	15	0	0	0	0	0	0	0	0	0	0	0	0	0	0	0	0	0	0	0	0	0	0	0	0	0	0	0	0	0	0	0	0	0	0	0	0	0	0	0	0	0	0	0	0	0	0	0	0	0	0	0	0	0	0	0	0	0	0	0	0	0	0	0	0	0	0	0	0	0	0	0	0	0	0	0	0	0	0	0	0	0	0	0	0	0	0	0	0	0	0	0	0	0	0	0	0	0	0	0	0	0	0
15	30	0	0	0	0	0	0	0	0	0	0	0	0	0	0	0	0	0	0	0	0	0	0	0	0	0	0	0	0	0	0	0	0	0	0	0	0	0	0	0	0	0	0	0	0	0	0	0	0	0	0	0	0	0	0	0	0	0	0	0	0	0	0	0	0	0	0	0	0	0	0	0	0	0	0	0	0	0	0	0	0	0	0	0	0	0	0	0	0	0	0	0	0	0	0	0	0	0	0	0	0	0	0
30	45	0	0	0	0	0	0	0	0	0	0	0	0	0	0	0	0	0	0	0	0	0	0	0	0	0	0	0	0	0	0	0	0	0	0	0	0	0	0	0	0	0	0	0	0	0	0	0	0	0	0	0	0	0	0	0	0	0	0	0	0	0	0	0	0	0	0	0	0	0	0	0	0	0	0	0	0	0	0	0	0	0	0	0	0	0	0	0	0	0	0	0	0	0	0	0	0	0	0	0	0	0	0
45	60	0	0	0	0	0	0	0	0	0	0	0	0	0	0	0	0	0	0	0	0	0	0	0	0	0	0	0	0	0	0	0	0	0	0	0	0	0	0	0	0	0	0	0	0	0	0	0	0	0	0	0	0	0	0	0	0	0	0	0	0	0	0	0	0	0	0	0	0	0	0	0	0	0	0	0	0	0	0	0	0	0	0	0	0	0	0	0	0	0	0	0	0	0	0	0	0	0	0	0	0	0	0
60	75	0.054869197309017	0.04125391319394112	0.03632054850459099	0.04779050499200821	0.0262357834726572	0.07336423546075821	0.021943474188447	0.2989000678062439	0.01479256432503462	0.1262569725513458	0.004570589866489172	0.06605437397956848	0.01488613337278366	0.03606240823864937	0.01663281582295895	0.05145379528403282	0.02048421092331409	0.01806589029729366	0.02203452400863171	0.04880626127123833	0.1704667955636978	0.03774205967783928	0.03047275729477406	0.03148560971021652	0.1590458601713181	0.07543233782052994	0.0612499788403511	0.01367518492043018	0.01280141249299049	0.02911847643554211	0.08006025850772858	0.06326702237129211	0.005552863702178001	0.09323148429393768	0.0659768357872963	0.06740029156208038	0.1049067378044128	0.1196340173482895	0.04784698784351349	0.05517670512199402	0.02398758567869663	0.008407372049987316	0.04041818156838417	0.05087308585643768	0.04928496107459068	0.08520372211933136	0.0557459183037281	0.02726265043020248	0.03802698105573654	0.1381648182868958	0.002198212314397097	0.03247413039207458	0.1567800790071487	0.04670189321041107	0.04830139502882957	0.04537459090352058	0.02889926545321941	0.1059286519885063	0.03759943693876266	0.05858172103762627	0.03946502134203911	0.06586363166570663	0.05167056247591972	0.0008708852110430598	0.005799505859613419	0.003485822817310691	0.02691858820617199	0.0723138153553009	0.03936430439352989	0.03822877258062363	0.04808858036994934	0.160294234752655	0.0553479790687561	0.02553859911859035	0.008702371269464493	0.2003850489854813	0.02810882590711117	0.04370936006307602	0.07964649796485901	0.06105798482894897	0.01988897658884525	0.001560581033118069	0.2087578475475311	0.06160257384181023	0.04321539774537086	0.06390225142240524	0.02007389813661575	0.112542986869812	0.03885084390640259	0.06553921103477478	0.07224828004837036	0.06918344646692276	0.02617045119404793	0.0385405533015728	0.03720694407820702	0.05076898261904716	0.05194419994950294	0.01924850791692734	0.137567937374115	0.03825718536973	0.08155613392591476	0.033382792025805
75	90	0.22921147942543	0.1931673437356949	0.1283327639102936	0.3003457188606262	0.3197657465934753	0.2129506021738052	0.1071748808026314	0.1567220985889435	0.2126334458589554	0.0773499608039856	0.2354767918586731	0.1747836917638779	0.02095813676714897	0.2994298934936523	0.03372393921017647	0.1769455373287201	0.2315022945404053	0.2771424949169159	0.2349800765514374	0.227516770362854	0.2228059023618698	0.1795049011707306	0.2401103675365448	0.351268082857132	0.07785907387733459	0.2936317920684814	0.3788640201091766	0.09761995077133179	0.09809113293886185	0.1404358297586441	0.1988957226276398	0.3578246831893921	0.06727976351976395	0.419887900352478	0.1527545303106308	0.2530167102813721	0.2526407241821289	0.3817768692970276	0.2753662765026093	0.3067164719104767	0.1082495599985123	0.3100798428058624	0.2715986967086792	0.2718008458614349	0.2406047284603119	0.3255355656147003	0.1979377865791321	0.4131880104541779	0.331900417804718	0.2263119667768478	0.1166298687458038	0.261332094669342	0.307589203119278	0.2201149463653564	0.258274257183075	0.3355447947978973	0.2136159837245941	0.1822863817214966	0.2451881915330887	0.2095061093568802	0.3077605366706848	0.2554869949817657	0.2660281956195831	0.2415488958358765	0.206468477845192	0.5420824885368347	0.3466328382492065	0.1931519210338593	0.2723840773105621	0.1994162797927856	0.2162606865167618	0.2995956242084503	0.2710642516613007	0.208274245262146	0.1755634844303131	0.270617663860321	0.1960935294628143	0.2517794072628021	0.2001221477985382	0.1910152584314346	0.223336324095726	0.3632732629776001	0.3103417754173279	0.2281405627727509	0.7518897652626038	0.2703739702701569	0.1525611579418182	0.2710622847080231	0.2205971330404282	0.2864337265491486	0.3291145861148834	0.2593509256839752	0.265393078327179	0.2325390130281448	0.2572097182273865	0.2831737697124481	0.2405666559934616	0.3518542945384979	0.3556910157203674	0.2972829341888428	0.3771063685417175	0.288423269987106
90	105	0.712526202201843	0.4954764544963837	0.6248501539230347	0.8044319152832031	0.7649908065795898	0.8536587357521057	0.514859676361084	0.6868965625762939	0.6426278352737427	0.6590617299079895	0.6615728139877319	0.7364806532859802	0.1483203023672104	0.7762733101844788	0.4880414009094238	0.4820134341716766	0.533265233039856	0.9431173205375671	0.6841709613800049	0.6321702599525452	0.4928278028964996	0.4918192028999329	0.9284151792526245	0.8908182978630066	0.130597248673439	0.7406119704246521	0.6378117203712463	0.3640375137329102	0.3083795011043549	0.9282670021057129	0.7280874848365784	1.044220089912415	0.2654688358306885	0.8212352991104126	0.7133197784423828	0.5555484294891357	0.971978485584259	1.0803142786026	0.505137026309967	0.6091240644454956	0.5324444174766541	1.098615765571594	0.6800573468208313	0.8026605248451233	0.9850601553916931	0.5541012287139893	0.5497945547103882	0.6853242516517639	0.7149724364280701	0.7525436282157898	0.4208793342113495	0.6616315841674805	0.4087076187133789	0.5767912268638611	0.6835311651229858	0.6901546120643616	0.5328054428100586	0.7610043287277222	0.6351427435874939	0.7388292551040649	0.6392301917076111	0.7881598472595215	0.5665251612663269	0.6583572030067444	0.8094067573547363	0.9129390120506287	0.9582870006561279	0.8644224405288696	0.6207805275917053	0.6409251093864441	0.6364293098449707	0.541462242603302	0.5718106031417847	0.6271591186523438	0.79079669713974	0.7848150730133057	0.7314741015434265	0.5079125165939331	0.8667337894439697	0.4832251071929932	0.728553295135498	0.4332847893238068	0.6385906338691711	0.8008482456207275	0.4440411925315857	0.6189194321632385	0.9054979681968689	0.587333619594574	0.6715120673179626	0.5586588978767395	0.4570442736148834	0.4890359938144684	0.6997228264808655	0.5997425317764282	0.573901891708374	0.7045948505401611	0.7339354157447815	0.5652297735214233	0.6007043719291687	1.027793765068054	0.9783957600593567	0.869915723800659
105	120	1.062444448471069	0.9092745184898376	1.025327086448669	1.560864567756653	1.175804615020752	0.7484157085418701	0.857021689414978	0.8828272223472595	1.120759010314941	1.372343063354492	0.6556791663169861	1.338109612464905	1.653181910514832	1.263899683952332	1.436055660247803	0.9208903312683105	0.9632449746131897	1.763007044792175	1.267036914825439	1.281805634498596	1.095916509628296	0.9605028033256531	1.685397148132324	1.370907068252563	1.341403365135193	1.354605913162231	2.49517035484314	0.7168633937835693	0.6658090353012085	1.019537329673767	1.150079131126404	2.044902563095093	0.5943279266357422	0.7649105191230774	1.412121176719666	1.210717558860779	1.86068320274353	0.9350160360336304	1.243062853813171	1.292910218238831	0.9521111249923706	1.268681526184082	1.345131754875183	1.01722264289856	1.587484955787659	1.10505747795105	1.165206789970398	1.182812571525574	1.336413621902466	1.256976962089539	1.816479563713074	1.557884931564331	1.484229683876038	1.087193727493286	1.137791991233826	1.412738561630249	1.191300988197327	1.365463614463806	1.212900400161743	1.142152786254883	1.294857025146484	1.644201874732971	1.139328837394714	1.160117387771606	0.9437994956970215	0.8976699113845825	1.546277165412903	0.7211046814918518	1.357308387756348	1.244367361068726	1.994206190109253	1.129669785499573	1.338310718536377	1.294627785682678	1.146191477775574	1.187217593193054	1.476267218589783	1.47459876537323	1.267022013664246	0.971032440662384	1.31494402885437	0.964264988899231	1.066839814186096	1.020912051200867	1.298997163772583	1.390463590621948	1.159862041473389	1.272506594657898	1.393400430679321	1.167614102363586	1.39216411113739	1.140628695487976	1.276731014251709	1.232396006584167	0.9991981983184814	1.681942462921143	1.105860233306885	0.5353788733482361	1.592546939849854	1.569409251213074	1.438290238380432	1.632397353649139
120	135	1.897448062896729	1.451743960380554	1.634384512901306	2.450381517410278	1.888365387916565	1.79887843132019	1.88118851184845	1.455250144004822	1.942762494087219	2.062221527099609	1.955740928649902	2.40687894821167	1.189049482345581	1.685153841972351	3.607954502105713	1.44599437713623	1.575829029083252	2.640899896621704	1.766619443893433	2.046539068222046	1.625775814056396	1.519937515258789	2.770493984222412	1.695271968841553	1.40897524356842	1.227664828300476	5.179163455963135	1.123928904533386	1.140686988830566	2.569583892822266	1.765035629272461	3.181161880493164	1.057069778442383	1.895725965499878	1.959866285324097	1.513543605804443	3.077098369598389	3.742099761962891	2.093926429748535	1.704031467437744	1.440912127494812	2.354850053787231	2.081381559371948	1.962007641792297	2.362628698348999	1.797638654708862	1.834863424301147	2.151223421096802	1.886943817138672	2.088276863098145	1.481132984161377	2.031491756439209	2.069675207138062	2.189343929290771	1.961766242980957	2.093183994293213	1.860816359519958	2.30708384513855	2.036532163619995	2.003931760787964	2.012172222137451	2.258608102798462	1.852031588554382	2.944870233535767	1.858115434646606	2.832972049713135	2.392359733581543	1.661876797676086	2.704568147659302	2.317843914031982	2.33460545539856	2.772078275680542	2.126818656921387	1.732451438903809	2.376221895217896	3.145882606506348	1.96700119972229	2.348007440567017	2.318921327590942	1.644534826278687	2.102580785751343	1.379370808601379	1.911092400550842	1.942512035369873	1.670346856117249	1.848823308944702	1.958438873291016	1.999743700027466	1.841796636581421	1.799596548080444	2.015479326248169	1.692663669586182	2.01788854598999	1.942805290222168	2.06193208694458	2.443163871765137	1.891985774040222	1.995337963104248	2.490985631942749	2.578192949295044	2.093917369842529	2.533677101135254
135	150	2.618682384490967	2.214609861373901	2.550393342971802	4.105454921722412	2.82170295715332	1.90123450756073	3.182493686676025	2.322150230407715	3.103467226028442	3.460867166519165	2.086861610412598	3.647572040557861	2.422573089599609	2.292186975479126	4.860297679901123	2.234755754470825	2.29121208190918	4.161859512329102	3.184301614761353	1.913380146026611	2.578269481658936	2.777847528457642	3.650715112686157	3.070176124572754	1.954552531242371	2.720960378646851	5.028828144073486	1.711438417434692	1.781747698783875	4.230325222015381	2.564694166183472	4.741373062133789	1.673505425453186	3.288334846496582	2.738696575164795	2.955384731292725	4.329522609710693	3.436861038208008	3.343569040298462	2.951415777206421	2.674817085266113	3.090553045272827	3.149115800857544	2.632224321365356	3.140912055969238	3.032845735549927	2.683681726455688	1.95565927028656	2.507995128631592	3.019652843475342	2.914252042770386	3.294732570648193	4.07813024520874	3.094208002090454	2.620062589645386	3.251693487167358	3.119714736938477	3.187497615814209	3.126121997833252	3.264258623123169	2.485282182693481	3.616180658340454	3.005008459091187	3.16055703163147	3.44444465637207	3.737956523895264	2.527999877929688	2.974686861038208	3.217223405838013	3.419121265411377	3.965280294418335	2.907492637634277	3.345268726348877	2.84645676612854	2.972575426101685	3.151151180267334	3.00328254699707	3.286377668380737	3.855945348739624	2.846590995788574	2.88090991973877	3.772343397140503	2.570235967636108	3.36826229095459	3.266275405883789	3.030640125274658	3.72358226776123	3.266411781311035	3.057539939880371	2.580748081207275	3.140982151031494	3.830499172210693	3.184183835983276	2.870263338088989	3.007502794265747	3.072108268737793	2.82922625541687	1.953648805618286	3.331062793731689	3.72126579284668	3.042582511901855	4.128211498260498
150	165	3.774508237838745	2.878017663955688	3.276181697845459	5.192029476165771	4.095828056335449	3.148088932037354	3.342783212661743	3.324089527130127	3.783236742019653	4.278866291046143	4.515198707580566	4.589265823364258	2.971879720687866	3.84669017791748	4.595166206359863	2.974363327026367	3.330406904220581	5.782937049865723	4.072874546051025	3.488497495651245	3.779227256774902	2.607271432876587	5.395827293395996	4.945104598999023	3.239409685134888	4.322768211364746	7.490938663482666	2.203193426132202	2.375694036483765	6.130494117736816	3.562164306640625	6.424407482147217	2.32370924949646	3.903439998626709	3.583514213562012	3.691607713699341	6.24679708480835	4.753061294555664	4.412336826324463	3.372771978378296	3.584414958953857	4.417953491210938	3.767297506332397	4.262157440185547	5.068228244781494	4.338614463806152	3.753216505050659	4.086409568786621	4.157393455505371	4.181646347045898	4.042657852172852	4.398634910583496	4.482058048248291	4.196619033813477	4.298852920532227	4.168527126312256	4.143749237060547	4.371478080749512	4.214184761047363	4.04489278793335	3.935840129852295	4.68244457244873	3.834485530853271	3.1900794506073	5.459052085876465	5.288723945617676	4.289009094238281	4.210427761077881	3.771902084350586	4.352075576782227	5.257400512695312	3.353643417358398	4.094626426696777	4.073450565338135	4.249461650848389	4.975953578948975	4.405672073364258	4.065817356109619	4.375607490539551	4.125138282775879	4.072690963745117	3.222395181655884	3.658471822738647	4.652825832366943	4.061627388000488	4.404150009155273	5.95655345916748	3.855734586715698	4.214367866516113	3.835399866104126	3.860868453979492	3.990905046463013	4.351174354553223	3.85285758972168	4.089043617248535	4.517594814300537	4.105542659759521	4.77796745300293	4.055566787719727	3.997828245162964	5.066961288452148	5.470955610275269
165	180	4.022017955780029	3.309574604034424	3.662508010864258	6.183736324310303	4.812585830688477	3.277948379516602	4.2950758934021	2.438261270523071	4.417177200317383	4.129557609558105	5.243347644805908	5.323573589324951	5.933089733123779	4.269211769104004	8.440544128417969	3.329270839691162	3.703985452651978	6.478187084197998	4.461189746856689	3.471807241439819	3.442920446395874	3.406955480575562	3.702943325042725	3.657167196273804	2.716447591781616	5.022627353668213	7.325464248657227	2.730846405029297	2.802327632904053	5.040030002593994	3.961439847946167	6.864958763122559	2.855469465255737	5.309309959411621	4.185505867004395	4.018025875091553	6.622567653656006	6.357819557189941	5.157486915588379	4.629767894744873	3.923092365264893	4.800424575805664	4.467316150665283	3.619658946990967	5.507723808288574	3.770045757293701	4.688138008117676	4.127364635467529	4.925148963928223	4.898499488830566	3.705987930297852	4.553725242614746	5.906417369842529	4.696683406829834	4.137851715087891	4.587807655334473	4.29082202911377	4.097251892089844	4.74307107925415	4.441152572631836	4.801324367523193	4.509682178497314	5.031665802001953	7.63391637802124	5.058282375335693	6.31463098526001	4.06662130355835	4.627956390380859	3.798616886138916	4.708938121795654	5.119738578796387	3.433917999267578	4.724861621856689	4.142590045928955	4.687416553497314	5.043412685394287	4.446758270263672	4.428663730621338	4.819931983947754	4.207308292388916	4.396408081054688	3.351520776748657	3.986735820770264	4.760628700256348	4.893079280853271	4.564891338348389	5.605476856231689	4.69370698928833	4.453962326049805	4.877710819244385	4.163796901702881	3.953068256378174	4.761977195739746	4.492597103118896	4.94296932220459	4.88751745223999	4.634182453155518	4.898082256317139	3.582095146179199	3.809122323989868	4.37960958480835	6.416755676269531
180	195	4.550525665283203	3.67126989364624	4.118798732757568	6.557640075683594	5.032073974609375	4.155062198638916	4.6347975730896	4.049773216247559	4.170120716094971	4.165990829467773	3.717368841171265	5.723639011383057	5.077037334442139	4.463276863098145	10.39363670349121	3.637763977050781	4.09650707244873	6.73975133895874	4.123575687408447	4.415410995483398	4.23970365524292	3.803666353225708	4.719466686248779	2.571731567382812	4.476330280303955	4.125260353088379	8.043283462524414	2.788208961486816	3.10538125038147	7.025712966918945	4.495299339294434	7.164498805999756	3.270309925079346	3.450980186462402	4.404882431030273	5.375442028045654	6.596569538116455	5.72727632522583	5.552249908447266	4.923319339752197	4.062605381011963	5.644551753997803	5.660345554351807	4.137272357940674	6.003156185150146	5.122283935546875	5.016330718994141	4.359316349029541	4.752193450927734	4.807251930236816	5.446980476379395	5.917576313018799	6.068913459777832	4.590217113494873	4.040433883666992	5.240307807922363	5.231387138366699	5.362285137176514	5.965435981750488	5.079265594482422	4.973434448242188	5.478826999664307	4.958347320556641	5.867902278900146	3.764127016067505	3.183153629302979	4.621111392974854	4.562490940093994	5.72634220123291	5.024128437042236	6.423264980316162	3.63057541847229	5.556605339050293	4.340592384338379	4.34321403503418	5.186568260192871	5.678412437438965	4.657711505889893	6.132663249969482	5.073418140411377	4.670179843902588	4.190388679504395	4.851012229919434	5.023447036743164	4.626378536224365	5.555152416229248	5.443325996398926	4.651479721069336	4.801432609558105	4.797836780548096	4.744961261749268	4.224334239959717	4.882248878479004	4.738624572753906	4.985976219177246	5.45180606842041	5.832459926605225	5.762335300445557	4.795954704284668	5.147807598114014	5.261179447174072	6.736266613006592
195	210	4.757739543914795	4.004874706268311	4.213977336883545	7.088157176971436	5.576010704040527	4.654860496520996	4.694297313690186	5.226619243621826	4.880601406097412	5.063409328460693	5.289436817169189	5.788105964660645	3.207141876220703	5.457798004150391	9.07976245880127	3.918006181716919	4.286703109741211	7.313733100891113	5.06314754486084	3.656469583511353	4.248928070068359	2.880030393600464	5.176973819732666	4.56080150604248	3.654256343841553	4.623697757720947	11.09863185882568	3.053122997283936	3.353571176528931	7.313753128051758	4.276559352874756	7.242085456848145	3.643995761871338	5.519539356231689	4.889674663543701	4.843533992767334	8.293726921081543	5.303423881530762	6.0667405128479	5.227560997009277	4.214184761047363	5.872213363647461	6.139187335968018	4.874287128448486	5.895388603210449	5.021332263946533	5.484954357147217	4.500704288482666	5.000095844268799	5.95133638381958	5.754772663116455	5.457225799560547	5.883982181549072	5.210141658782959	5.039567947387695	5.505961418151855	4.675481796264648	4.810993671417236	5.954520702362061	5.305147647857666	5.364140510559082	5.76889181137085	5.080849647521973	5.407919883728027	5.66530704498291	6.03295373916626	5.263076782226562	5.79464054107666	4.619423389434814	6.253700256347656	6.108320713043213	4.845700740814209	4.852914810180664	5.226029396057129	5.163844585418701	4.376072883605957	6.107348918914795	5.817780017852783	5.928651809692383	5.092869281768799	5.129220008850098	4.526659965515137	4.85008716583252	5.945041179656982	5.780438423156738	4.851316452026367	7.167287826538086	4.661514282226562	4.958556652069092	5.123922348022461	4.977542877197266	4.094111442565918	5.708942890167236	5.151187419891357	5.299524307250977	5.498890399932861	5.559805393218994	5.736037731170654	4.777338027954102	5.621039867401123	4.828795433044434	7.393927335739136
210	225	4.87060546875	4.1927170753479	5.349086284637451	7.119051456451416	5.167963027954102	4.688620567321777	4.86215877532959	5.677987575531006	5.483213424682617	4.0928955078125	3.56431770324707	6.405518054962158	5.921531677246094	5.634658336639404	10.0025806427002	4.100610256195068	4.232563972473145	7.257274150848389	4.873893737792969	4.332952976226807	4.53015661239624	3.697757244110107	6.232664585113525	4.558599948883057	5.003132820129395	4.724478721618652	7.916301727294922	3.199995279312134	3.530101537704468	6.408895015716553	4.703271865844727	7.403233051300049	3.965438842773438	5.335657119750977	4.547417640686035	5.657061576843262	8.195249557495117	5.055741310119629	6.109525680541992	5.246163368225098	4.737188816070557	6.711948871612549	6.432950973510742	5.123273372650146	6.388613224029541	5.05009126663208	5.178630352020264	4.53575325012207	5.378228664398193	5.682713508605957	5.239241600036621	6.315603256225586	6.747561931610107	5.374087333679199	6.230608463287354	5.583350658416748	5.721653938293457	5.072324752807617	6.319807529449463	5.395345211029053	5.256942749023438	5.987528800964355	6.281839370727539	6.125929832458496	5.491304874420166	5.55828857421875	5.168500423431396	5.650153636932373	5.037933826446533	5.793017387390137	6.014324188232422	5.125971794128418	5.005468368530273	5.260612487792969	5.364430904388428	4.786265850067139	6.114743232727051	5.317405700683594	5.868496894836426	4.647952079772949	5.097805500030518	4.363723278045654	4.689218044281006	5.877509593963623	5.995034694671631	6.123647212982178	6.608845710754395	4.960759162902832	4.415798664093018	5.699176788330078	4.886788845062256	4.139505386352539	5.880726337432861	5.063694953918457	5.462303638458252	5.699854850769043	5.602469444274902	5.875110626220703	6.897027969360352	6.600554466247559	5.021352291107178	7.363498210906982
225	240	5.094924926757812	4.282562255859375	4.861648559570312	7.298169612884521	5.935809135437012	4.385997295379639	5.07534122467041	4.148936748504639	4.722805976867676	5.5919189453125	4.961165428161621	6.043301105499268	5.062857151031494	5.626343250274658	9.003933906555176	4.440225124359131	5.031146049499512	7.533159732818604	5.419384479522705	3.978056192398071	5.097926616668701	3.535882234573364	3.877294063568115	5.251665592193604	3.839711666107178	4.972784519195557	7.98759651184082	3.291881084442139	3.734217882156372	6.57865047454834	4.636899948120117	7.336785316467285	4.09299373626709	5.412672996520996	5.156232833862305	5.614470958709717	8.4896240234375	5.193374156951904	6.168097019195557	5.470448017120361	4.398192405700684	6.085437297821045	6.666995048522949	5.5198974609375	6.433933734893799	5.338485717773438	5.054382801055908	4.789745807647705	5.123873710632324	5.738430023193359	6.123725414276123	6.333008289337158	7.260726928710938	6.306993007659912	5.353114604949951	6.313849449157715	5.594905853271484	5.304037094116211	6.339910984039307	5.727932929992676	5.198742389678955	6.0550217628479	6.254958629608154	7.252258777618408	4.510509967803955	5.194925785064697	5.918318748474121	5.719735622406006	5.045516014099121	5.45921802520752	6.725663661956787	4.014552116394043	5.389195919036865	5.584614753723145	5.375792026519775	5.629933834075928	6.034002780914307	5.004453182220459	7.023871421813965	5.672663688659668	6.171861171722412	4.361687183380127	5.089488983154297	5.98589038848877	4.180478572845459	4.71796178817749	7.465441703796387	5.660975456237793	5.830357551574707	6.010696411132812	5.194369792938232	5.677233219146729	6.448782444000244	5.886391162872314	6.096477508544922	5.640738487243652	5.600038051605225	6.641116142272949	5.502916812896729	4.596348762512207	5.180288791656494	7.635531187057495
240	270	5.221764087677002	4.474015235900879	5.442639350891113	7.717594623565674	5.381979465484619	4.570878982543945	6.226087093353271	5.284832954406738	4.612054347991943	5.006869792938232	3.579362154006958	6.024086475372314	4.558672428131104	4.762215137481689	8.715250015258789	4.535155296325684	5.222228527069092	7.711183547973633	5.470504283905029	3.809092998504639	5.043971538543701	5.320013523101807	5.862796306610107	3.177018404006958	4.08632755279541	4.787515640258789	7.467050075531006	3.218686819076538	3.797741413116455	7.383378028869629	4.730464458465576	7.280030727386475	4.414740085601807	5.590755462646484	5.256543159484863	5.799756050109863	8.517891883850098	6.681662082672119	5.981708526611328	6.118203163146973	5.124387741088867	6.487889289855957	6.936754703521729	5.499478816986084	6.849328994750977	5.309630393981934	5.644125938415527	5.468908786773682	5.872416973114014	6.776066303253174	5.798600673675537	6.379513263702393	6.928942203521729	6.307485103607178	5.17610502243042	6.401282787322998	5.907296180725098	4.853813171386719	6.623172283172607	6.507476806640625	5.843033790588379	5.779332637786865	6.137249946594238	6.112020015716553	7.451384544372559	6.383106708526611	5.748545169830322	5.650664329528809	4.847660064697266	6.364511489868164	6.604519367218018	5.233672142028809	5.361572742462158	5.736308097839355	5.295811653137207	6.605228424072266	6.586722850799561	5.71115255355835	6.654491901397705	5.379184722900391	5.573254108428955	5.276022434234619	5.62883186340332	5.720855236053467	5.363724708557129	5.436051845550537	7.06015157699585	5.46860408782959	5.424412250518799	5.77015495300293	5.67809009552002	6.180059432983398	6.454770088195801	5.670296669006348	5.736422061920166	6.33446741104126	5.898396015167236	5.280838966369629	5.01071310043335	7.050111293792725	5.587131977081299	8.010570287704468
270	300	5.349141120910645	4.612622737884521	5.331395626068115	7.430855751037598	5.544678688049316	3.895464181900024	5.0197434425354	3.722060680389404	4.711638927459717	5.023068428039551	3.470053434371948	5.794463634490967	3.004324674606323	5.124315738677979	7.813468456268311	4.600330352783203	5.253081798553467	7.538320541381836	5.216268539428711	5.161917209625244	5.9391188621521	4.253771781921387	5.003348827362061	4.607880115509033	4.037718772888184	5.258209228515625	6.296393871307373	3.274376153945923	3.9120192527771	7.673459053039551	4.41937255859375	6.983006954193115	4.538087368011475	5.003250122070312	5.194685459136963	6.197419166564941	7.900229454040527	6.56229305267334	6.120343685150146	6.259163856506348	4.885612487792969	6.160910129547119	7.131014347076416	5.919500827789307	6.770490169525146	5.171077251434326	5.845431327819824	4.84499454498291	5.694106101989746	6.62561559677124	6.730069637298584	6.413904666900635	7.724958896636963	6.540210723876953	5.448891639709473	6.461625099182129	6.556572914123535	6.132298469543457	6.926238059997559	6.058231353759766	6.08765172958374	5.859096527099609	6.012628078460693	5.172017574310303	5.042117118835449	5.638588428497314	5.133039951324463	5.379693984985352	5.234071731567383	6.804831027984619	7.26533842086792	4.550823211669922	6.253015995025635	5.604677200317383	5.264105796813965	6.024012088775635	6.807414531707764	5.508738994598389	6.553372859954834	5.179564952850342	5.31195592880249	5.73820161819458	5.509276866912842	6.330654621124268	6.057445526123047	5.846161842346191	8.445757865905762	6.031667709350586	5.27865743637085	6.164021968841553	5.517244338989258	5.932278156280518	6.443088054656982	5.83815860748291	5.909103393554688	5.725197315216064	5.974225997924805	6.389647960662842	5.525786399841309	6.502641201019287	5.456176280975342	7.801876068115234
