frame_start	frame_end	highbinding	left_cerebral_white_matter	left_cerebellum_white_matter	left_cerebellum_cortex	left_thalamus	left_caudate	left_putamen	left_pallidum	brain_stem	left_hippocampus	left_amygdala	csf	left_accumbens_area	left_ventraldc	left_choroid_plexus	right_cerebral_white_matter	right_cerebellum_white_matter	right_cerebellum_cortex	right_thalamus	right_caudate	right_putamen	right_pallidum	right_hippocampus	right_amygdala	right_accumbens_area	right_ventraldc	right_choroid_plexus	aircavity	skull	vermis	pons	csf_extracerebral	head_extracerebral	ctx_lh_bankssts	ctx_lh_caudalanteriorcingulate	ctx_lh_caudalmiddlefrontal	ctx_lh_cuneus	ctx_lh_entorhinal	ctx_lh_fusiform	ctx_lh_inferiorparietal	ctx_lh_inferiortemporal	ctx_lh_isthmuscingulate	ctx_lh_lateraloccipital	ctx_lh_lateralorbitofrontal	ctx_lh_lingual	ctx_lh_medialorbitofrontal	ctx_lh_middletemporal	ctx_lh_parahippocampal	ctx_lh_paracentral	ctx_lh_parsopercularis	ctx_lh_parsorbitalis	ctx_lh_parstriangularis	ctx_lh_pericalcarine	ctx_lh_postcentral	ctx_lh_posteriorcingulate	ctx_lh_precentral	ctx_lh_precuneus	ctx_lh_rostralanteriorcingulate	ctx_lh_rostralmiddlefrontal	ctx_lh_superiorfrontal	ctx_lh_superiorparietal	ctx_lh_superiortemporal	ctx_lh_supramarginal	ctx_lh_frontalpole	ctx_lh_temporalpole	ctx_lh_transversetemporal	ctx_lh_insula	ctx_rh_bankssts	ctx_rh_caudalanteriorcingulate	ctx_rh_caudalmiddlefrontal	ctx_rh_cuneus	ctx_rh_entorhinal	ctx_rh_fusiform	ctx_rh_inferiorparietal	ctx_rh_inferiortemporal	ctx_rh_isthmuscingulate	ctx_rh_lateraloccipital	ctx_rh_lateralorbitofrontal	ctx_rh_lingual	ctx_rh_medialorbitofrontal	ctx_rh_middletemporal	ctx_rh_parahippocampal	ctx_rh_paracentral	ctx_rh_parsopercularis	ctx_rh_parsorbitalis	ctx_rh_parstriangularis	ctx_rh_pericalcarine	ctx_rh_postcentral	ctx_rh_posteriorcingulate	ctx_rh_precentral	ctx_rh_precuneus	ctx_rh_rostralanteriorcingulate	ctx_rh_rostralmiddlefrontal	ctx_rh_superiorfrontal	ctx_rh_superiorparietal	ctx_rh_superiortemporal	ctx_rh_supramarginal	ctx_rh_frontalpole	ctx_rh_temporalpole	ctx_rh_transversetemporal	ctx_rh_insula	reference
0	15	0	0	0	0	0	0	0	0	0	0	0	0	0	0	0	0	0	0	0	0	0	0	0	0	0	0	0	0	0	0	0	0	0	0	0	0	0	0	0	0	0	0	0	0	0	0	0	0	0	0	0	0	0	0	0	0	0	0	0	0	0	0	0	0	0	0	0	0	0	0	0	0	0	0	0	0	0	0	0	0	0	0	0	0	0	0	0	0	0	0	0	0	0	0	0	0	0	0	0	0	0	0
15	30	-7.06182334e-07	3.300335151834588e-07	0	0	0	0	0	0	0	0	0	0	0	0	0	0	0	0	0	0	0	0	0	0	0	0	0	0	8.199134704511835e-09	0	0	3.945890057366341e-05	2.302498816608711e-11	0	0	0	0	0	0	0	0	0	0	0	0	0	0	0	0	0	0	0	0	0	0	0	0	0	0	8.221955738463294e-08	0	0	0	0	0	0	0	0	0	0	0	0	0	0	0	0	0	0	0	0	0	0	0	0	0	0	0	0	0	1.517446723831029e-09	0	0	0	0	0	1.453373533877311e-05	0	0	0	0	0	-4.091557571e-06
30	45	0.202746868133545	0.1200990378856659	0.05074559152126312	0.09137704968452454	0.163431778550148	0.2023441940546036	0.1557907313108444	0.09216707944869995	0.1928796768188477	0.1221806257963181	0.0293461699038744	0.1074723228812218	0.1765250414609909	0.1574518829584122	0.02746705338358879	0.1082534566521645	0.104470893740654	0.1149540022015572	0.07624033838510513	0.2365159243345261	0.2685856819152832	0.1135270893573761	0.06415402889251709	0.04235285520553589	0.05175680667161942	0.1663984656333923	0.2407557815313339	0.07878688722848892	0.06605829298496246	0.06881816685199738	0.1793186217546463	0.1104645356535912	0.06254909932613373	0.09128188341856003	0.07513226568698883	0.06679481267929077	0.1356006860733032	0.0941670686006546	0.1304319351911545	0.09974915534257889	0.1216097101569176	0.07033166289329529	0.1200094297528267	0.14171102643013	0.1119347289204597	0.132212296128273	0.115480862557888	0.1459763944149017	0.04139433801174164	0.1375783830881119	0.1358668059110641	0.1194377392530441	0.1781198382377625	0.09461625665426254	0.1451060473918915	0.1174400821328163	0.1549113094806671	0.1809520572423935	0.1702819615602493	0.1207815036177635	0.06685104221105576	0.1724631041288376	0.08680839091539383	0.02855042740702629	0.09073571860790253	0.1847289800643921	0.202223464846611	0.1086696162819862	0.2259074747562408	0.07408542931079865	0.1149591505527496	0.08884846419095993	0.06182534620165825	0.0702589750289917	0.1122381687164307	0.09113442897796631	0.07285836338996887	0.08924353867769241	0.1046977117657661	0.2208082973957062	0.09343434125185013	0.2191475629806519	0.06519720703363419	0.2270297557115555	0.1371816098690033	0.1340791285037994	0.09768190234899521	0.1193840876221657	0.1540372520685196	0.1018468886613846	0.1181687042117119	0.1458951234817505	0.09427443146705627	0.1360181719064713	0.0929449200630188	0.1821559518575668	0.1323094815015793	0.07859543710947037	0.1072956696152687	0.1139834895730019	0.2805688083171844	0.106624528765678
45	60	1.430707812309265	1.111714482307434	0.9979807734489441	2.004164695739746	1.457790017127991	0.8497675657272339	1.446893930435181	1.431357026100159	1.593456745147705	1.620911002159119	1.723288297653198	0.9227213859558105	2.332494974136353	1.29563319683075	1.156904220581055	1.147475719451904	1.000980377197266	1.509872913360596	1.547436237335205	1.096394777297974	1.587894320487976	0.8015955090522766	2.265238761901855	1.370447635650635	0.9474048018455505	1.713419079780579	1.040878057479858	1.018025398254395	1.176724791526794	2.056492328643799	1.613968253135681	2.392506837844849	1.212508082389832	1.396505355834961	2.056281805038452	1.444388508796692	1.809773564338684	1.523564457893372	1.496351718902588	1.548440337181091	1.525480508804321	1.729988694190979	1.864399552345276	1.566341400146484	1.718881845474243	1.686810970306396	1.688044548034668	1.845451354980469	1.48504376411438	2.186467170715332	1.802123069763184	2.158741474151611	1.426980972290039	1.635351061820984	1.502535104751587	1.593916893005371	1.560937523841858	2.18102240562439	1.596390008926392	1.70536208152771	1.408583760261536	2.06276535987854	1.538050413131714	1.702746748924255	1.530905365943909	2.43883752822876	1.930218696594238	1.409959435462952	2.782739400863647	1.86880624294281	1.871564149856567	1.584869384765625	1.436338067054749	1.386777281761169	1.312072038650513	1.992966175079346	1.747988104820251	1.656111836433411	1.938646554946899	1.904747366905212	1.336067676544189	1.490798234939575	1.397026538848877	1.535393357276917	1.560700416564941	1.644479036331177	1.51170027256012	1.814128756523132	2.438992738723755	1.434623599052429	1.666012525558472	2.051781892776489	1.589156627655029	1.571370244026184	1.607369422912598	2.083768844604492	1.537571430206299	1.168617725372314	1.70492422580719	3.694112300872803	2.41464376449585	1.740253329277039
60	75	3.124594211578369	2.588614940643311	2.21725058555603	4.70593786239624	3.190156936645508	2.531216621398926	3.657280683517456	2.516875982284546	2.775693655014038	4.306826114654541	3.054660081863403	2.117939949035645	3.147161960601807	2.313856363296509	3.494006395339966	2.52502703666687	2.111467599868774	3.599913597106934	2.709805011749268	2.607013940811157	2.863969326019287	3.194782018661499	4.414817810058594	2.213684320449829	3.907986640930176	2.843435764312744	4.670861721038818	2.610347270965576	2.913111448287964	4.39146089553833	2.637861013412476	5.031960010528564	2.9588463306427	3.403556823730469	4.843748092651367	3.217846393585205	2.830727577209473	3.778932809829712	3.190346240997314	3.470101118087769	2.874087333679199	4.041259288787842	4.473695278167725	3.072660446166992	3.605157852172852	3.473948955535889	3.54520845413208	3.552950859069824	3.011044025421143	3.892755746841431	3.434017419815063	3.571097850799561	3.623543977737427	3.076382398605347	3.024828672409058	3.227346658706665	2.904340982437134	3.612627744674683	3.532995939254761	3.607571601867676	3.284407138824463	3.653191328048706	3.48589563369751	3.856721162796021	3.551104307174683	5.129759788513184	4.284920215606689	3.6190185546875	3.325615644454956	3.041516065597534	3.585246324539185	3.580668449401855	2.839122533798218	3.290231227874756	2.924295663833618	3.247995615005493	3.925703287124634	3.734535932540894	4.408876895904541	3.55736517906189	3.746944189071655	3.062646389007568	3.104184150695801	3.831049680709839	3.088577747344971	4.08625602722168	2.947336435317993	3.283554792404175	4.306366443634033	3.335355997085571	3.208117008209229	3.088812112808228	3.094959020614624	3.28330659866333	3.08477258682251	4.16200065612793	3.404452800750732	3.917713165283203	3.226303100585938	5.871421813964844	3.771841049194336	4.179926991462708
75	90	4.971560955047607	4.103261470794678	3.746229410171509	7.341023921966553	5.613170623779297	4.157947063446045	4.944474697113037	4.058516025543213	4.457577705383301	7.372608661651611	5.556191444396973	3.121167421340942	5.29179048538208	4.412915229797363	5.722368717193604	4.096587181091309	4.111255645751953	6.110671043395996	3.988357067108154	4.532656192779541	4.506195545196533	2.967087984085083	7.2326979637146	5.265787601470947	5.222840309143066	4.431111812591553	8.140520095825195	3.995054244995117	5.063427448272705	7.754367828369141	4.474006175994873	7.983715534210205	5.021792888641357	5.891655921936035	6.435726165771484	5.363453388214111	5.562318325042725	4.217414855957031	5.176846027374268	5.571913719177246	5.107229232788086	6.054756641387939	7.654863834381104	4.965546607971191	6.433929443359375	5.958291053771973	5.26052188873291	4.445828914642334	4.164786338806152	5.982427597045898	5.953745365142822	6.377004146575928	6.682658195495605	5.339354038238525	4.852066516876221	5.843714237213135	4.902273654937744	5.880000114440918	5.792981624603271	5.93543004989624	5.521789073944092	6.22833251953125	5.902182102203369	7.004125595092773	4.491953372955322	8.685917854309082	6.601204872131348	5.842713832855225	6.324702739715576	6.072030067443848	6.297637939453125	5.924623489379883	4.696785926818848	5.843776702880859	4.257242202758789	5.386990547180176	7.015017986297607	5.561448097229004	6.846652984619141	5.888856410980225	4.971919059753418	4.658973217010498	4.629661083221436	5.572336673736572	5.326748847961426	5.084350109100342	5.544820308685303	5.118698596954346	5.952107429504395	5.142526149749756	5.3363356590271	6.540081024169922	5.436613082885742	5.470651149749756	5.980977058410645	6.632215023040771	5.702476024627686	8.544773101806641	5.699287414550781	9.462981224060059	5.617422103881836	6.789390087127686
90	105	6.627696990966797	5.915768623352051	6.054531097412109	10.59284400939941	7.492166042327881	4.822777271270752	6.330443382263184	6.276792049407959	6.198134422302246	9.482850074768066	5.723814487457275	4.295702457427979	9.054638862609863	6.720168590545654	5.89180326461792	5.968343734741211	5.648280620574951	9.035089492797852	7.02241039276123	4.435486316680908	7.675655364990234	5.628348827362061	8.878762245178223	6.361948490142822	5.198633193969727	6.361473560333252	7.288441181182861	5.734461307525635	7.455262660980225	11.65807247161865	5.760927677154541	10.93540287017822	7.342770099639893	8.731302261352539	8.285181045532227	7.069091320037842	7.933300971984863	6.571995735168457	7.615666389465332	8.819884300231934	6.943534374237061	8.111632347106934	10.36298370361328	7.658085346221924	8.585714340209961	7.48687219619751	8.174100875854492	6.539237499237061	6.450456619262695	9.002835273742676	7.793804168701172	9.190536499023438	8.695489883422852	8.025687217712402	7.762033462524414	7.454575061798096	7.317289352416992	7.95595645904541	8.128373146057129	8.478124618530273	7.790927410125732	8.792420387268066	8.063552856445312	6.425045967102051	9.336280822753906	12.07838535308838	8.866663932800293	7.078356742858887	8.299361228942871	6.602197647094727	10.13001441955566	7.608452320098877	6.438651561737061	8.356194496154785	6.943385124206543	7.591114521026611	9.70234203338623	8.125398635864258	9.03333568572998	7.583460330963135	7.342301368713379	7.814610481262207	7.526945114135742	7.779665470123291	7.771896839141846	7.246807098388672	9.478984832763672	7.505990982055664	7.620058536529541	7.364263534545898	6.94201135635376	6.386383533477783	7.995329856872559	7.700164318084717	8.91229248046875	9.03847599029541	8.099017143249512	7.735624313354492	6.380581378936768	11.66770648956299	8.215997695922852	9.949782848358154
105	120	8.754325866699219	7.540600299835205	7.924357891082764	13.72737503051758	10.05862045288086	6.731975078582764	8.975302696228027	6.731146812438965	8.949854850769043	8.919210433959961	7.261617660522461	5.562779903411865	8.004145622253418	7.84574556350708	7.628033638000488	7.486234188079834	7.481027126312256	10.8866662979126	8.290166854858398	6.099401950836182	8.620169639587402	6.571362972259521	10.88372611999512	8.428131103515625	7.574368000030518	7.563252925872803	10.47832489013672	7.462646007537842	9.700116157531738	14.8828592300415	7.478669166564941	13.162184715271	9.445595741271973	10.89853096008301	11.8903226852417	9.595723152160645	9.968865394592285	7.600773334503174	8.201377868652344	10.926194190979	8.569986343383789	9.88245677947998	13.17205238342285	9.072844505310059	11.96441841125488	10.47974395751953	9.767257690429688	8.336602210998535	10.04999256134033	10.92587184906006	11.27059459686279	10.90631103515625	10.97178649902344	9.963054656982422	9.053947448730469	9.2313232421875	9.962912559509277	9.226555824279785	10.73604965209961	10.18642520904541	9.680861473083496	11.09194850921631	10.83772945404053	9.128398895263672	8.067279815673828	14.02759838104248	10.6589822769165	9.140031814575195	8.41535472869873	10.69428253173828	11.38878536224365	9.199308395385742	8.90609073638916	10.57775974273682	7.85008430480957	9.207528114318848	12.46486854553223	9.827258110046387	11.3259859085083	10.00645923614502	9.388944625854492	8.685462951660156	9.969141960144043	9.806802749633789	8.886753082275391	9.93321704864502	11.39455986022949	9.532225608825684	11.22741317749023	9.15932559967041	9.439807891845703	9.752383232116699	10.20642375946045	9.667106628417969	9.674354553222656	11.50424861907959	9.462101936340332	9.524270057678223	7.078646183013916	15.42195701599121	9.852035522460938	12.51778841018677
120	135	9.97878360748291	8.819004058837891	9.074847221374512	15.18176078796387	9.63618278503418	6.793472766876221	10.47244930267334	10.39419460296631	9.54951000213623	12.67235088348389	8.381071090698242	5.92022705078125	9.367729187011719	8.920342445373535	11.0959300994873	8.727104187011719	8.641940116882324	13.23383045196533	11.39978885650635	7.226834774017334	10.82850360870361	7.311774253845215	12.49223613739014	9.784387588500977	8.121304512023926	9.598365783691406	10.72834014892578	8.543392181396484	11.33044719696045	14.43784713745117	8.267082214355469	14.9824857711792	11.17211818695068	11.82011604309082	12.35316753387451	10.37135791778564	13.46080017089844	10.10230731964111	11.53236293792725	12.6690788269043	10.70162487030029	10.44457721710205	16.07897186279297	10.96634292602539	13.79279327392578	10.82175731658936	10.85333347320557	9.545068740844727	10.19369888305664	12.00586128234863	12.92033767700195	12.87459564208984	14.83479118347168	11.57549571990967	11.60291957855225	11.68993473052979	11.4369945526123	10.73256683349609	11.95133972167969	11.93002223968506	11.37824630737305	12.81091690063477	12.25846481323242	13.96731090545654	11.16450119018555	16.15812873840332	12.48642921447754	10.50267505645752	10.39398670196533	12.09506702423096	13.42350578308105	9.748725891113281	10.38438320159912	12.63642311096191	10.04385757446289	10.33461952209473	13.88343811035156	11.47377872467041	13.70716190338135	11.49038600921631	11.01045036315918	9.614002227783203	10.7445764541626	10.98602771759033	12.80759143829346	12.05883121490479	14.7690315246582	11.22689628601074	9.895084381103516	10.6406946182251	10.96431732177734	10.53857517242432	11.59549617767334	11.69844627380371	12.06926727294922	12.30871963500977	11.46853160858154	11.7379150390625	9.720128059387207	13.44032859802246	12.81163311004639	14.57176780700684
135	150	10.9494800567627	9.795019149780273	9.901129722595215	17.61363410949707	10.76591300964355	7.577371597290039	12.56729316711426	10.72452449798584	9.430621147155762	10.30420780181885	8.063460350036621	6.280550003051758	11.42542362213135	9.203164100646973	5.942091941833496	9.868507385253906	9.870200157165527	14.79544353485107	11.4042797088623	6.856903076171875	12.76754856109619	9.602611541748047	12.69468593597412	10.78697395324707	9.161524772644043	9.533061027526855	8.256206512451172	9.72130012512207	12.92240428924561	19.2637825012207	9.14448356628418	16.10149574279785	12.77045726776123	14.64875793457031	10.52970504760742	12.43682765960693	14.7577018737793	12.22317028045654	11.68458461761475	14.37353134155273	11.49717044830322	11.75475597381592	16.94586372375488	11.81815814971924	13.94803524017334	11.7543249130249	12.60895919799805	10.13158226013184	12.35157585144043	13.53648567199707	16.45036315917969	14.16754722595215	15.29249954223633	13.20516204833984	12.95308589935303	13.08917236328125	12.30547714233398	11.17042446136475	13.44566440582275	13.68018341064453	13.38394069671631	13.69446468353271	12.83994483947754	14.62303161621094	13.08559417724609	15.21433544158936	12.75286102294922	12.14177799224854	10.79856777191162	13.37932586669922	15.49747085571289	10.01785278320312	11.03213882446289	13.56435966491699	11.76012897491455	12.15172958374023	17.03526878356934	12.26900959014893	14.61222171783447	12.26270961761475	12.46814155578613	10.1894359588623	11.51466655731201	12.89334964752197	13.35127353668213	13.2523832321167	15.72980403900146	13.80948352813721	10.76255798339844	13.11381816864014	11.80883693695068	12.22428512573242	13.9811544418335	13.16233730316162	13.66174125671387	14.53423118591309	12.97950458526611	13.63889789581299	11.42423248291016	17.92155838012695	13.02330303192139	16.66941499710083
150	165	10.82238483428955	10.16894817352295	9.753454208374023	17.44595146179199	11.35694885253906	7.657191753387451	12.80465602874756	9.635883331298828	10.20742797851562	11.69933414459229	10.27359580993652	6.169725894927979	10.65355396270752	9.83740234375	6.446121215820312	10.1039981842041	10.62218475341797	15.49778079986572	11.50571537017822	6.390320301055908	11.46167278289795	10.17157459259033	11.50423145294189	9.93310546875	10.91151809692383	8.834047317504883	10.51517105102539	9.931853294372559	13.93584537506104	17.19783592224121	9.701305389404297	16.57039642333984	13.69370651245117	15.27616119384766	14.25106430053711	12.71352577209473	13.40132522583008	11.32473945617676	11.88141918182373	15.11739158630371	12.55434608459473	12.89054393768311	18.13560676574707	12.73358631134033	14.94557857513428	12.52661895751953	13.32390022277832	8.687220573425293	12.14050674438477	14.0224781036377	15.84685325622559	15.37296581268311	16.4980297088623	13.21081638336182	12.3021764755249	13.28055477142334	13.39713764190674	12.98184967041016	14.31416797637939	14.06752586364746	13.26148796081543	13.94251537322998	13.54017448425293	14.11207389831543	9.375517845153809	14.80266571044922	11.78222942352295	13.57585334777832	12.83213043212891	12.57298755645752	16.57805061340332	9.946792602539062	11.34179019927979	14.06801605224609	10.95132923126221	11.92758178710938	17.52495002746582	12.81568336486816	15.49352931976318	12.66607666015625	12.91014099121094	10.17113399505615	14.11738681793213	13.66079998016357	13.16601085662842	15.60419368743896	15.69388675689697	12.95299625396729	12.4618968963623	13.54464054107666	13.26086902618408	14.70205879211426	14.6245174407959	13.9487829208374	14.13416957855225	14.17042827606201	13.78660106658936	14.48801708221436	10.42653465270996	16.28659439086914	12.10211086273193	17.01676607131958
165	180	11.14897918701172	10.83761596679688	11.53956127166748	17.90976905822754	12.16222190856934	7.678953647613525	11.44158935546875	12.4965991973877	9.803739547729492	11.14114761352539	10.70294952392578	6.416911125183105	10.34607601165771	11.31881713867188	7.922148704528809	10.59930896759033	10.94291877746582	15.96523475646973	12.66389560699463	8.01783275604248	11.71739292144775	9.114974975585938	12.56856155395508	10.29394245147705	8.447595596313477	11.39368343353271	11.92585182189941	10.15306663513184	14.54654216766357	16.85223960876465	10.32712364196777	16.40915107727051	14.28579139709473	15.95173835754395	12.20495414733887	13.35404205322266	14.87092113494873	11.47401428222656	12.77505683898926	16.72801780700684	13.01461219787598	14.09908008575439	20.15706253051758	13.34533214569092	14.89665412902832	13.14919948577881	13.86417198181152	9.878445625305176	12.74647235870361	14.83070755004883	15.76668167114258	16.18603324890137	16.77898979187012	14.33240413665771	12.3260383605957	14.74503517150879	13.35489463806152	13.31088161468506	15.87140083312988	14.94611358642578	14.81207370758057	14.09527015686035	14.98469829559326	15.32288360595703	11.55305767059326	17.38289833068848	13.23345184326172	14.58992195129395	11.0054349899292	13.91603469848633	16.1320972442627	10.0964183807373	11.96209907531738	15.38824653625488	12.70038509368896	10.7678165435791	18.12394523620605	13.50480270385742	15.96688270568848	13.01166534423828	13.07620525360107	10.3960075378418	12.24372100830078	13.74058818817139	13.60179901123047	13.88093185424805	16.12114715576172	13.1032886505127	12.54816913604736	14.53919887542725	13.86145877838135	13.37617492675781	15.72893524169922	13.91523933410645	13.95353126525879	14.22592449188232	14.4303150177002	13.58379459381104	10.46422386169434	16.83376121520996	13.05300140380859	17.52129745483398
180	195	12.59322547912598	11.3232536315918	11.7339916229248	18.25433921813965	12.35511493682861	8.421377182006836	14.78798961639404	10.43993186950684	10.44445896148682	11.4107027053833	11.34032154083252	6.329891681671143	12.86751461029053	10.88692569732666	9.311691284179688	10.92927265167236	12.43729591369629	16.32395172119141	12.12760543823242	8.380253791809082	13.79995441436768	10.88331604003906	10.31409168243408	11.45994567871094	12.03863430023193	10.68533134460449	10.31412315368652	10.31994438171387	15.01941013336182	17.86487007141113	9.770387649536133	16.22950172424316	14.71133136749268	15.29136180877686	13.5415735244751	13.7491979598999	15.09925270080566	11.3156213760376	12.95514583587646	16.77132606506348	12.54916763305664	15.08319664001465	20.57053184509277	13.11212348937988	15.37136363983154	13.30997180938721	14.72644901275635	10.27767562866211	13.92245483398438	16.97748374938965	15.72193813323975	17.47730445861816	17.38167381286621	15.31010055541992	12.13952827453613	14.79993915557861	13.94568252563477	14.1676721572876	16.15979766845703	15.27486228942871	14.47203159332275	14.99145603179932	15.32334327697754	14.73466110229492	11.08277225494385	16.98252296447754	14.08986663818359	15.15443134307861	13.38908958435059	15.7622184753418	16.88798141479492	12.75628757476807	12.4509916305542	15.15780639648438	12.25954151153564	11.9423885345459	18.14951705932617	12.24391841888428	16.96307563781738	13.78467845916748	14.09779453277588	10.95302581787109	12.19913673400879	14.05827236175537	16.89748573303223	15.0509729385376	17.14253807067871	13.95288753509521	11.37269592285156	13.67588043212891	13.61489009857178	13.24189281463623	15.2634334564209	14.78113842010498	15.42353630065918	14.51900291442871	13.8891134262085	17.44435882568359	10.04300117492676	16.11613464355469	12.18959712982178	17.90592861175537
195	210	12.79637908935547	11.72574520111084	12.39234447479248	17.89282035827637	13.3865966796875	8.664556503295898	14.51491641998291	12.41569519042969	10.34337139129639	11.06939792633057	9.602399826049805	6.974128723144531	12.0770149230957	10.71782112121582	7.523398876190186	11.41859912872314	12.20403099060059	16.31875991821289	12.19876766204834	9.382669448852539	13.07656383514404	13.17455387115479	11.68424129486084	10.93344020843506	13.10028839111328	9.953025817871094	8.165979385375977	10.02407360076904	15.20032501220703	16.43547439575195	9.235026359558105	15.89375686645508	14.99797916412354	15.30311870574951	12.45628929138184	15.32765197753906	16.19207382202148	8.502316474914551	13.27789688110352	17.67888832092285	14.3435697555542	12.35828876495361	20.33144187927246	14.67015743255615	15.76627445220947	14.62133026123047	15.33909702301025	11.57941055297852	12.82384777069092	15.30688858032227	17.48708915710449	17.58039093017578	18.33335113525391	15.14248085021973	12.78397178649902	14.64766025543213	14.92923164367676	13.01429271697998	16.41610145568848	15.2686824798584	14.50461387634277	15.20948123931885	16.29943656921387	12.87565803527832	11.51480197906494	15.51164436340332	14.00519752502441	17.47439575195312	14.22210788726807	14.18682765960693	17.65059852600098	12.03319931030273	13.41120719909668	15.77221393585205	13.29841613769531	12.55785179138184	19.55802726745605	14.65076732635498	17.00066947937012	14.91976070404053	13.68552780151367	11.82110691070557	12.51902770996094	16.54608535766602	15.24716663360596	15.57065773010254	15.96274757385254	14.11297416687012	12.54173374176025	14.84322166442871	13.4012565612793	13.03417205810547	16.67124176025391	14.92980861663818	15.9533519744873	14.54800796508789	14.76449108123779	15.20433330535889	10.4237699508667	16.61123847961426	13.4577112197876	17.74486255645752
210	225	12.65601348876953	11.74788379669189	12.57651424407959	17.84953117370605	12.08162117004395	9.351635932922363	13.83633613586426	10.324462890625	10.84506797790527	9.631125450134277	10.72714328765869	6.424509525299072	12.20325946807861	12.27120399475098	8.042682647705078	11.4668664932251	12.6663932800293	16.94431495666504	13.74356079101562	7.781592845916748	13.76926422119141	9.482880592346191	11.30071544647217	9.280155181884766	14.31159973144531	10.87840747833252	14.04167938232422	10.07059383392334	15.36114406585693	16.99477767944336	10.66540813446045	15.93942546844482	14.84802532196045	18.09456634521484	14.4586877822876	14.99059009552002	15.26021957397461	11.3455228805542	12.7195291519165	16.71066284179688	13.74427890777588	12.59749317169189	19.62248420715332	15.03382110595703	15.79671192169189	14.66245174407959	15.26873016357422	10.65735244750977	13.05952644348145	16.27972793579102	16.36379432678223	18.44709777832031	16.72616958618164	15.88267230987549	13.54559230804443	15.66058444976807	14.52103900909424	14.54331016540527	15.71047019958496	15.99919414520264	15.2594108581543	15.37700366973877	15.79766368865967	16.08686637878418	10.68320274353027	16.68826103210449	13.04099369049072	14.28769397735596	11.74623680114746	15.14472579956055	16.24205780029297	10.43799018859863	12.94738483428955	16.55506706237793	13.49740409851074	11.05728721618652	18.97543334960938	13.04458332061768	17.56734275817871	13.34173679351807	14.57547760009766	11.51315879821777	13.60898208618164	16.12494277954102	15.23628330230713	16.42195701599121	17.88420295715332	14.1231575012207	13.35525989532471	14.575927734375	14.21135902404785	12.25011444091797	16.80999565124512	15.35319519042969	15.59122371673584	15.10250091552734	14.63341426849365	14.83143901824951	11.160813331604	16.68173027038574	13.83596515655518	18.08839321136475
225	240	12.63900566101074	12.01223945617676	13.70369815826416	18.01639556884766	12.71658420562744	8.75764274597168	13.39353275299072	12.28891849517822	10.69243240356445	11.36406517028809	9.556552886962891	6.450061321258545	11.26266098022461	11.70768356323242	8.771299362182617	11.86415576934814	11.30787372589111	16.88792419433594	11.99849987030029	9.23711109161377	14.52455997467041	10.98155307769775	10.97230815887451	8.789734840393066	14.73738384246826	9.563126564025879	7.46704626083374	10.09519863128662	15.41384601593018	16.46528053283691	10.37395858764648	15.9113826751709	14.95039653778076	16.07318496704102	14.1341724395752	14.92022228240967	17.60602188110352	11.64046669006348	13.6629524230957	17.63559532165527	15.05454635620117	14.28624248504639	21.06636238098145	15.76420021057129	16.34293174743652	16.2014045715332	16.54437446594238	10.36022472381592	11.55185890197754	16.98630905151367	17.22555923461914	17.52991104125977	17.91854095458984	16.4534969329834	15.28706932067871	15.94455146789551	14.63682746887207	13.2499828338623	17.13491249084473	16.44674873352051	14.99797916412354	15.82666206359863	16.42250442504883	14.91937065124512	12.27973461151123	17.01945495605469	14.14275169372559	13.90364933013916	11.83953285217285	14.57950401306152	17.17820739746094	9.944497108459473	14.1219367980957	16.09819984436035	13.65852355957031	13.48808670043945	19.10466957092285	13.64019298553467	16.68642234802246	15.04601097106934	14.24288845062256	11.28653717041016	13.36814498901367	16.3428840637207	16.46848678588867	15.8466100692749	16.62353324890137	15.16383647918701	12.16229343414307	14.82666492462158	15.2320499420166	13.9296932220459	16.40097045898438	15.79683876037598	16.56828308105469	15.7917947769165	15.45206356048584	18.6163215637207	11.0166711807251	16.7120246887207	13.26362895965576	18.16936111450195
