frame_start	frame_end	highbinding	left_cerebral_white_matter	left_cerebellum_white_matter	left_cerebellum_cortex	left_thalamus	left_caudate	left_putamen	left_pallidum	brain_stem	left_hippocampus	left_amygdala	csf	left_accumbens_area	left_ventraldc	left_choroid_plexus	right_cerebral_white_matter	right_cerebellum_white_matter	right_cerebellum_cortex	right_thalamus	right_caudate	right_putamen	right_pallidum	right_hippocampus	right_amygdala	right_accumbens_area	right_ventraldc	right_choroid_plexus	aircavity	skull	vermis	pons	csf_extracerebral	head_extracerebral	ctx_lh_bankssts	ctx_lh_caudalanteriorcingulate	ctx_lh_caudalmiddlefrontal	ctx_lh_cuneus	ctx_lh_entorhinal	ctx_lh_fusiform	ctx_lh_inferiorparietal	ctx_lh_inferiortemporal	ctx_lh_isthmuscingulate	ctx_lh_lateraloccipital	ctx_lh_lateralorbitofrontal	ctx_lh_lingual	ctx_lh_medialorbitofrontal	ctx_lh_middletemporal	ctx_lh_parahippocampal	ctx_lh_paracentral	ctx_lh_parsopercularis	ctx_lh_parsorbitalis	ctx_lh_parstriangularis	ctx_lh_pericalcarine	ctx_lh_postcentral	ctx_lh_posteriorcingulate	ctx_lh_precentral	ctx_lh_precuneus	ctx_lh_rostralanteriorcingulate	ctx_lh_rostralmiddlefrontal	ctx_lh_superiorfrontal	ctx_lh_superiorparietal	ctx_lh_superiortemporal	ctx_lh_supramarginal	ctx_lh_frontalpole	ctx_lh_temporalpole	ctx_lh_transversetemporal	ctx_lh_insula	ctx_rh_bankssts	ctx_rh_caudalanteriorcingulate	ctx_rh_caudalmiddlefrontal	ctx_rh_cuneus	ctx_rh_entorhinal	ctx_rh_fusiform	ctx_rh_inferiorparietal	ctx_rh_inferiortemporal	ctx_rh_isthmuscingulate	ctx_rh_lateraloccipital	ctx_rh_lateralorbitofrontal	ctx_rh_lingual	ctx_rh_medialorbitofrontal	ctx_rh_middletemporal	ctx_rh_parahippocampal	ctx_rh_paracentral	ctx_rh_parsopercularis	ctx_rh_parsorbitalis	ctx_rh_parstriangularis	ctx_rh_pericalcarine	ctx_rh_postcentral	ctx_rh_posteriorcingulate	ctx_rh_precentral	ctx_rh_precuneus	ctx_rh_rostralanteriorcingulate	ctx_rh_rostralmiddlefrontal	ctx_rh_superiorfrontal	ctx_rh_superiorparietal	ctx_rh_superiortemporal	ctx_rh_supramarginal	ctx_rh_frontalpole	ctx_rh_temporalpole	ctx_rh_transversetemporal	ctx_rh_insula	reference
0	15	0	0	0	0	0	0	0	0	0	0	0	0	0	0	0	0	0	0	0	0	0	0	0	0	0	0	0	0	0	0	0	0	0	0	0	0	0	0	0	0	0	0	0	0	0	0	0	0	0	0	0	0	0	0	0	0	0	0	0	0	0	0	0	0	0	0	0	0	0	0	0	0	0	0	0	0	0	0	0	0	0	0	0	0	0	0	0	0	0	0	0	0	0	0	0	0	0	0	0	0	0	0
15	30	-1.14813804e-06	0	0	0	0	0	0	0	0	0	0	0	0	0	0	5.243615305516869e-06	0	0	0	4.970327621700577e-11	0	0	0	0	0	0	0	0	0	0	0	0	0	0	0	0	0	0	0	0	0	0	0	0	0	0	0	0	0	0	0	0	0	0	0	0	0	0	0	0	0	0	0	0	0	0	0	0	0	0	0	0	0	0	0	0	0	0	0	0	0	0	0	0	0	0	0	0	0	0	0	0	0	0	0	0	6.346054866497586e-14	0	0	0	0	2.3251375e-08
30	45	0.132183283567429	0.08172230422496796	0.04229610040783882	0.06509531289339066	0.07301200181245804	0.2242894321680069	0.1033500134944916	0.07036597281694412	0.1058793812990189	0.05956266447901726	0.1335123181343079	0.09039511531591415	0.03513995185494423	0.1403716504573822	0.000672158959787339	0.07019991427659988	0.07662869989871979	0.05041150748729706	0.05815881863236427	0.07953700423240662	0.1677266359329224	0.1207367181777954	0.0947108194231987	0.04668554291129112	0.05256235972046852	0.1103742718696594	0.02629278600215912	0.04812308773398399	0.03741324692964554	0.06949640065431595	0.06695516407489777	0.08225841075181961	0.03341082111001015	0.03184687718749046	0.05440934374928474	0.08341847360134125	0.00797140970826149	0.1889820992946625	0.05242089554667473	0.04858577996492386	0.05871951207518578	0.04088662564754486	0.0682506337761879	0.109480619430542	0.0409492626786232	0.06568849086761475	0.06005663797259331	0.04542722180485725	0.06971515715122223	0.06962976604700089	0.1113763228058815	0.112360380589962	0.07584409415721893	0.06897136569023132	0.1038808152079582	0.05227841064333916	0.06355000287294388	0.1994775980710983	0.07819317281246185	0.1060128882527351	0.05898819118738174	0.06256474554538727	0.07181457430124283	0.09083337336778641	0.1635115444660187	0.0341668538749218	0.1000182554125786	0.06778068840503693	0.01144587621092796	0.1049991250038147	0.05844004824757576	0.05668998882174492	0.04677505046129227	0.05532148480415344	0.08413964509963989	0.02124987356364727	0.07347727566957474	0.1475756019353867	0.03232031688094139	0.07665985822677612	0.06294476985931396	0.3186109960079193	0.02568119019269943	0.1555081009864807	0.0737638995051384	0.05639096349477768	0.01444180030375719	0.1044422388076782	0.1456445902585983	0.06797473877668381	0.06282902508974075	0.260204404592514	0.08721577376127243	0.04785327240824699	0.0856875479221344	0.09623777121305466	0.115968182682991	0.2850762009620667	0.08994403481483459	0.1132381930947304	0.1120487675070763	0.054064445197582
45	60	1.073701024055481	0.9073481559753418	0.919694185256958	1.309707283973694	1.004251599311829	0.9047414660453796	1.046062231063843	0.909004807472229	0.9867417216300964	1.249717354774475	1.935680627822876	1.13129985332489	0.8834646940231323	1.118228316307068	1.76032555103302	0.8741074204444885	0.7948703765869141	1.117485880851746	0.7647782564163208	1.02135181427002	1.284987807273865	0.8325530290603638	1.110489249229431	1.67270565032959	1.006411910057068	1.132148385047913	1.323059797286987	0.6404807567596436	0.6742029786109924	1.376997113227844	0.969784677028656	1.781069993972778	0.7685344815254211	1.1951744556427	1.103732109069824	0.9460793733596802	1.559054017066956	1.244272828102112	1.159733295440674	1.245957016944885	1.181702494621277	1.268590092658997	1.142297148704529	1.228376150131226	1.381144285202026	1.155691981315613	1.022096395492554	1.494798302650452	1.508235216140747	1.15856945514679	1.045808672904968	1.134402871131897	1.270494103431702	1.05663001537323	1.705944895744324	1.239388585090637	1.081873297691345	1.768681406974792	1.189073204994202	1.26030158996582	1.194266438484192	1.451575994491577	1.394504904747009	0.96670001745224	1.10954749584198	1.569870710372925	1.641692280769348	0.9144908785820007	1.278806447982788	1.362955570220947	1.131718277931213	1.539637207984924	1.176979899406433	0.9875938296318054	0.7779159545898438	0.9806832075119019	1.30113673210144	1.272593021392822	1.448940873146057	1.010181784629822	1.118753671646118	0.8374546766281128	1.177157878875732	1.479500889778137	1.013835072517395	1.097279787063599	1.064535140991211	1.124600172042847	1.376066327095032	1.015010833740234	0.9583644866943359	1.580158948898315	1.04432213306427	1.13025951385498	1.29112720489502	1.298251867294312	1.217684507369995	1.089335322380066	1.212072968482971	1.622311472892761	1.130776166915894	1.154641330242157
60	75	3.026648998260498	2.564803600311279	2.465488195419312	3.935218334197998	3.183716773986816	2.346557855606079	3.396651029586792	1.920890212059021	2.914089441299438	3.326128005981445	2.195672512054443	3.609402656555176	4.379889011383057	3.273786067962646	3.82929539680481	2.520132541656494	2.220401763916016	4.146116733551025	2.471088409423828	2.650367259979248	3.545641899108887	1.728791236877441	3.965024709701538	3.28435754776001	2.577876567840576	2.987208843231201	3.126878261566162	1.899587392807007	2.310111522674561	5.958653926849365	2.509038209915161	6.01637601852417	2.758487462997437	3.323737859725952	4.326122760772705	3.095690727233887	4.693502902984619	3.184331655502319	3.750652313232422	3.236331701278687	2.846038103103638	4.094711303710938	3.95063042640686	3.203417301177979	4.557784080505371	4.19371223449707	2.821326494216919	3.702950239181519	4.023674964904785	3.692130327224731	2.921791315078735	3.708173990249634	5.027422904968262	3.310558080673218	4.043018817901611	3.640478134155273	3.456238508224487	5.3623948097229	3.398564577102661	3.944212198257446	3.951861619949341	4.244199275970459	3.34131908416748	4.243607997894287	4.317586898803711	5.031315326690674	4.499423980712891	4.564518451690674	4.47530460357666	3.949837923049927	5.884597778320312	2.349863767623901	3.351840734481812	3.594588041305542	3.5005784034729	4.419165134429932	3.571938037872314	3.659012079238892	4.710193157196045	3.873087644577026	3.625223398208618	2.663148880004883	3.343058586120605	3.955034732818604	3.106737852096558	3.014744997024536	4.426054000854492	3.542570114135742	4.337581634521484	3.558233976364136	3.631729364395142	4.667048931121826	2.929467678070068	3.696711540222168	3.735453128814697	4.290014266967773	3.42726993560791	2.759184598922729	4.323546409606934	4.390518188476562	3.876972436904907	3.882487773895264
75	90	5.368956565856934	4.274917602539062	4.334539413452148	7.73241138458252	5.312493324279785	5.809637069702148	5.077992916107178	4.734433650970459	5.120823383331299	5.738624095916748	4.08556604385376	7.351923942565918	5.736559391021729	5.141150951385498	8.069220542907715	4.439796924591064	3.743737459182739	7.403385639190674	5.244163036346436	4.84442138671875	4.989554405212402	3.694354057312012	6.235028266906738	5.080309867858887	3.640665054321289	4.537732601165771	8.416934967041016	3.554467439651489	4.770954608917236	12.61038208007812	4.499948024749756	10.41727352142334	5.33421802520752	5.919832229614258	7.206074714660645	5.90477991104126	9.161043167114258	5.288440704345703	5.257717609405518	5.842926979064941	5.561827182769775	7.469674110412598	7.235323905944824	5.258077144622803	8.762716293334961	6.037182331085205	4.902448654174805	6.505405426025391	6.673437118530273	5.753567695617676	5.668980598449707	5.795563697814941	9.553750991821289	6.458988666534424	6.510753154754639	5.947799682617188	7.072021484375	6.823904037475586	6.126832962036133	6.171313762664795	7.178256511688232	6.64610767364502	6.037152767181396	7.275598049163818	5.367509841918945	8.518045425415039	6.639847755432129	7.944207191467285	6.789502620697021	6.016990184783936	8.274781227111816	6.496570110321045	5.906805515289307	5.960770606994629	5.347095966339111	8.164817810058594	6.929666042327881	6.471382141113281	8.091882705688477	5.251672744750977	5.814793109893799	4.993331909179688	6.179214000701904	5.707818984985352	6.847249984741211	6.172842979431152	8.45687198638916	6.319772720336914	6.812952041625977	6.403164863586426	6.005817413330078	6.022054672241211	5.331964015960693	6.075660228729248	7.249264240264893	7.058693408966064	6.247774124145508	5.377976894378662	8.397616386413574	7.488429546356201	6.358532905578613	7.347908735275269
90	105	6.836206436157227	5.718582153320312	5.809921741485596	9.351299285888672	6.969867706298828	6.755186557769775	5.920797824859619	5.453505039215088	6.656346797943115	7.004201412200928	7.51726245880127	9.131945610046387	8.49378776550293	6.533910751342773	10.05477714538574	5.877022266387939	5.574995994567871	8.809213638305664	7.466265201568604	6.659006595611572	6.845108032226562	5.693107128143311	6.946897029876709	5.609077930450439	6.819938182830811	6.93803882598877	10.44601535797119	4.479945659637451	6.285350799560547	13.61023330688477	6.007068634033203	11.33371829986572	7.072179317474365	7.099853038787842	10.03623199462891	6.730464935302734	10.47699737548828	6.292472362518311	6.508453845977783	7.8556809425354	6.942706108093262	9.778465270996094	9.008672714233398	6.76231050491333	10.35581207275391	7.016318321228027	6.458053588867188	6.618060111999512	8.864191055297852	7.560715198516846	7.369174480438232	7.514439105987549	10.91317081451416	8.321135520935059	8.436802864074707	7.576995849609375	7.789867401123047	9.133084297180176	7.559635639190674	8.123063087463379	8.920296669006348	7.803527355194092	7.862570285797119	7.236050128936768	7.272732734680176	8.886794090270996	7.718832015991211	7.243821144104004	8.952930450439453	7.643936634063721	9.416461944580078	5.292616367340088	7.873117446899414	7.325835227966309	7.544920921325684	9.254127502441406	8.990019798278809	7.14988899230957	9.030573844909668	8.091822624206543	7.430316925048828	5.837225437164307	8.555412292480469	6.783988475799561	9.437583923339844	7.535591125488281	8.862776756286621	8.357627868652344	7.313625335693359	7.182753562927246	8.334728240966797	7.014833927154541	6.992860794067383	7.904006004333496	8.489175796508789	8.616458892822266	7.311397075653076	6.873106479644775	8.589876174926758	9.571719169616699	7.884480476379395	9.013239860534668
105	120	9.385819435119629	7.702929019927979	7.433211803436279	12.42307472229004	9.450517654418945	9.737140655517578	8.597389221191406	6.69279146194458	7.733179569244385	9.529191970825195	8.793437957763672	10.33278274536133	11.56307506561279	7.825393199920654	9.444466590881348	7.797564506530762	7.397768974304199	12.52350616455078	9.105563163757324	8.294625282287598	8.917668342590332	9.365882873535156	10.45590209960938	9.702327728271484	10.24626445770264	9.335391998291016	10.72094631195068	6.285708904266357	8.541229248046875	14.87117767333984	8.095438957214355	15.47508525848389	9.871393203735352	9.447769165039062	12.13259506225586	9.497662544250488	14.61991119384766	8.626084327697754	9.299130439758301	10.49277877807617	9.581543922424316	11.69282627105713	12.55799007415771	9.338972091674805	13.33382034301758	10.19206523895264	9.02622127532959	7.969075679779053	11.22265625	10.9836597442627	8.469955444335938	9.248254776000977	14.5507984161377	10.45152854919434	11.47033214569092	10.14075183868408	11.17901706695557	8.806764602661133	9.829188346862793	11.26273822784424	11.44076061248779	11.17459392547607	10.87402820587158	9.593236923217773	8.500225067138672	13.90811634063721	10.78838443756104	10.62282180786133	11.81954288482666	10.85446262359619	14.87577629089355	8.188908576965332	10.34173107147217	9.808309555053711	10.26205730438232	11.54892253875732	12.26380729675293	10.44542980194092	13.53089046478271	10.57932472229004	10.08120155334473	9.516206741333008	9.979997634887695	11.25217914581299	10.13684844970703	10.3649320602417	12.42751312255859	10.71559047698975	11.23856449127197	10.13362693786621	10.93132495880127	9.285568237304688	9.956963539123535	10.92697715759277	12.11721801757812	11.61196422576904	9.990737915039062	10.09289836883545	12.92838096618652	13.56640529632568	9.901505470275879	12.43173122406006
120	135	10.24284267425537	8.705074310302734	8.307050704956055	13.71634864807129	10.34663009643555	10.1469612121582	9.409228324890137	8.104045867919922	9.0323486328125	9.662569046020508	9.072294235229492	11.74982643127441	6.359269142150879	8.030803680419922	11.16772270202637	8.812231063842773	8.19149112701416	14.35257625579834	10.00327205657959	9.10079288482666	9.757255554199219	9.038663864135742	10.68918418884277	8.557635307312012	9.386911392211914	9.74237060546875	15.69031429290771	6.876527786254883	10.02617359161377	17.58984565734863	8.230867385864258	16.36136627197266	11.55745792388916	10.69382572174072	13.48414993286133	10.55451679229736	17.44733619689941	11.10021686553955	11.58018970489502	11.97842502593994	10.96296405792236	12.49344825744629	14.24981498718262	10.34200096130371	16.11324501037598	9.646329879760742	10.00688934326172	7.652413845062256	12.08257579803467	11.488600730896	11.111572265625	10.4524450302124	14.85715007781982	11.84864902496338	13.12407684326172	12.33829498291016	12.08060169219971	10.5269775390625	11.95629787445068	13.15808582305908	13.31759548187256	12.4038257598877	12.29706764221191	9.250301361083984	11.54473400115967	13.32218742370605	12.03083038330078	10.18208026885986	12.16218852996826	11.85377597808838	16.83098030090332	8.307622909545898	11.39159774780273	10.93869113922119	11.2182559967041	12.66388607025146	13.58139038085938	10.89045238494873	16.02128982543945	10.08738613128662	11.77070999145508	9.195827484130859	11.60164260864258	12.14297962188721	12.04263496398926	10.95514583587646	13.68685150146484	12.79203510284424	11.14482688903809	11.38665962219238	12.14172172546387	11.1690149307251	11.76113986968994	12.08347988128662	14.08541297912598	12.67348003387451	12.26956748962402	9.955896377563477	11.30943870544434	13.46793937683105	11.22749614715576	14.12359094619751
135	150	11.69888591766357	9.532636642456055	9.400478363037109	15.57282161712646	11.81753158569336	10.66228294372559	10.39044952392578	11.95596885681152	9.371807098388672	10.03676509857178	8.637825965881348	13.0017557144165	11.1315746307373	8.680379867553711	13.73983001708984	10.01253414154053	9.733454704284668	15.15721416473389	12.11727905273438	11.30370998382568	10.57346439361572	7.791538715362549	11.59278869628906	12.04499816894531	8.796609878540039	10.93195056915283	16.29197692871094	7.575684070587158	11.16732692718506	19.05349159240723	10.42065143585205	17.12617683410645	12.86147499084473	12.22951507568359	14.55763149261475	11.90158271789551	18.36874961853027	11.09573554992676	11.56497478485107	12.95639324188232	10.40586853027344	13.92633152008057	15.4539041519165	11.89913272857666	17.33078002929688	11.66037750244141	11.62854385375977	10.3739709854126	14.97513484954834	13.4946756362915	11.99686431884766	12.89147186279297	17.02121543884277	13.59425354003906	13.29147338867188	12.60903835296631	13.27280044555664	13.00130176544189	12.87543487548828	14.80311679840088	14.33057308197021	13.31045818328857	13.1356201171875	14.05367755889893	10.96378421783447	15.3385009765625	12.07242298126221	10.33871173858643	11.59766101837158	12.27100849151611	17.80473327636719	11.9198751449585	12.51011180877686	12.44990062713623	11.53960514068604	14.45122814178467	15.30007266998291	12.84130954742432	15.31456184387207	12.48054027557373	11.51233959197998	9.984315872192383	13.42765235900879	14.33637523651123	12.04419612884521	12.70691585540771	17.51552581787109	13.73134422302246	12.44946098327637	12.8028564453125	13.37153148651123	11.86197662353516	12.64279270172119	14.12404918670654	14.60291290283203	12.70652389526367	13.01005840301514	10.47670459747314	11.98647594451904	13.60136413574219	11.57316207885742	15.56449270248413
150	165	13.02987003326416	10.49677658081055	10.28664970397949	16.04543685913086	12.97710990905762	12.95221328735352	11.41140079498291	10.71722030639648	10.87910175323486	12.14647102355957	11.00778579711914	13.14627647399902	11.66413402557373	12.43881988525391	13.26193904876709	10.67060661315918	10.54085922241211	16.45698547363281	11.96531105041504	11.56521701812744	12.31518840789795	9.212579727172852	12.84760093688965	10.66879749298096	9.637646675109863	9.449436187744141	15.64345169067383	8.235257148742676	12.37814998626709	21.50337600708008	10.02486133575439	18.14187240600586	14.15328025817871	16.05075645446777	14.62076759338379	12.94510078430176	20.34623336791992	12.41481971740723	12.24392127990723	15.4221830368042	12.88289451599121	15.4092435836792	17.17501449584961	12.69529914855957	18.67742538452148	12.13428497314453	12.95819091796875	10.5346794128418	14.48067378997803	14.51762008666992	14.11084079742432	13.29655361175537	18.78833961486816	14.09754085540771	16.99224472045898	14.55467319488525	15.20223808288574	11.72255897521973	14.05338668823242	15.40236568450928	16.17888069152832	14.27673053741455	13.60726547241211	14.54050254821777	10.38842678070068	14.55986881256104	13.67336463928223	15.86618804931641	13.25707721710205	13.77015686035156	19.91747856140137	10.38916397094727	12.83249473571777	13.72101783752441	13.80435180664062	16.55159759521484	16.07653999328613	12.05489063262939	18.22580909729004	12.3706226348877	13.68857669830322	8.849224090576172	14.46745777130127	14.74317264556885	15.13508605957031	15.09766578674316	16.45281028747559	14.39359188079834	14.04180431365967	14.06945610046387	16.11663627624512	12.69514942169189	13.67693710327148	16.26069450378418	16.48356246948242	14.26477527618408	13.45815849304199	14.41988658905029	13.47661590576172	16.11868286132812	13.10543918609619	16.48165702819824
165	180	13.0047492980957	10.96743774414062	11.21311187744141	16.86483955383301	12.10058116912842	12.28969192504883	12.06188583374023	10.25528049468994	10.32522201538086	12.37353515625	11.4102258682251	14.25286960601807	11.2520227432251	11.1765193939209	14.1105318069458	11.60287761688232	10.93981552124023	17.51630973815918	12.82906532287598	11.26469898223877	14.59601974487305	12.96262645721436	12.4850025177002	10.03266334533691	12.50517559051514	11.44621276855469	17.9076976776123	8.575018882751465	12.75255966186523	22.27760124206543	10.59645366668701	17.88100814819336	14.70690059661865	15.37208938598633	16.19777679443359	14.46954250335693	19.21244239807129	12.10131454467773	12.41012573242188	15.52061080932617	11.64810276031494	15.72641754150391	17.15916061401367	13.60281658172607	19.0389404296875	13.06417179107666	12.73908424377441	15.00899696350098	16.67869567871094	14.99487495422363	13.92287635803223	14.04817771911621	18.49569511413574	15.7824592590332	15.94441986083984	15.41915702819824	16.25040245056152	13.89449119567871	15.28224086761475	16.5936107635498	15.55042934417725	14.12747001647949	15.10226631164551	15.44277763366699	11.15429019927979	17.03983879089355	13.603928565979	14.93432807922363	13.03758239746094	14.90880584716797	21.15608978271484	8.243350028991699	14.64252281188965	14.24195957183838	13.63305473327637	17.70489883422852	17.68548011779785	13.18829345703125	17.31948280334473	13.64696884155273	14.22982692718506	11.7293176651001	14.39035129547119	15.75804328918457	15.05227947235107	15.49003982543945	20.02255249023438	14.95776557922363	14.04249382019043	14.98694515228271	16.52485847473145	12.7022123336792	14.45220470428467	15.72580337524414	16.98222160339355	14.46323585510254	15.12278938293457	15.1991081237793	13.12007427215576	16.50629806518555	13.86845016479492	17.60368824005127
180	195	13.24563789367676	11.16945743560791	11.46041584014893	17.54742622375488	12.68788909912109	11.66063022613525	13.6328125	10.70930862426758	10.62082386016846	10.19372844696045	9.414943695068359	13.60934352874756	10.36499500274658	11.71287631988525	11.34682083129883	11.45609188079834	11.02207660675049	17.23273658752441	11.91847705841064	12.04992866516113	13.34036636352539	12.90953731536865	11.41935634613037	8.199838638305664	13.16834354400635	11.27341461181641	12.29977512359619	8.203265190124512	12.97122669219971	21.74065971374512	10.88311290740967	17.38404273986816	14.95279121398926	13.8964672088623	14.95266532897949	14.47206783294678	19.99875831604004	12.79347991943359	12.72762203216553	16.21601104736328	13.35158824920654	17.08112525939941	17.73954200744629	13.64201354980469	18.68302345275879	12.44596099853516	13.33032131195068	10.48104763031006	15.32878875732422	15.36280918121338	14.89693069458008	14.46232604980469	17.7671947479248	15.0335521697998	16.47311401367188	16.01592636108398	16.16096305847168	12.88306331634521	15.36425971984863	16.66720771789551	16.71373748779297	14.65432262420654	15.95366954803467	14.65094661712646	11.761399269104	18.66478729248047	12.64123344421387	14.34843254089355	15.08331871032715	15.16719818115234	21.93041038513184	11.43047904968262	14.31934356689453	15.51190853118896	13.94312763214111	14.88212108612061	18.14656066894531	13.55916118621826	17.99745178222656	13.21969127655029	13.82890796661377	12.20017528533936	13.33672046661377	15.42036819458008	15.58706378936768	15.55702877044678	21.04586601257324	15.46769046783447	15.88968563079834	15.6960620880127	15.27092456817627	11.94906902313232	15.32698249816895	15.47910213470459	16.43243789672852	14.53901672363281	15.67173099517822	14.17364406585693	12.57806491851807	18.80039024353027	14.88518142700195	17.95939540863037
195	210	14.28493881225586	11.78622436523438	11.49559879302979	16.89949035644531	13.11213207244873	13.48343849182129	14.22573184967041	11.64978504180908	11.19378566741943	11.93038845062256	10.59209442138672	12.9432258605957	15.61734008789062	10.6313419342041	12.62630462646484	12.06616878509521	11.67532157897949	17.5484733581543	13.1301326751709	12.77120208740234	14.13872146606445	12.91901016235352	12.35848712921143	9.185220718383789	14.61285877227783	11.55465412139893	12.48031234741211	8.119431495666504	13.1161060333252	19.15973472595215	11.444260597229	16.75415229797363	15.1780252456665	13.36553573608398	16.99474906921387	15.04081344604492	21.24781227111816	8.445725440979004	13.41373920440674	16.8333911895752	14.07744979858398	15.34481811523438	18.20848846435547	14.57991600036621	18.48219680786133	14.29963111877441	14.15508079528809	12.91414451599121	17.73327827453613	15.38615131378174	15.67027473449707	14.69726085662842	17.36524963378906	16.22883796691895	13.56819248199463	16.45104789733887	16.25548934936523	12.93294429779053	16.12685966491699	17.80063438415527	16.95432662963867	14.08128070831299	15.58732223510742	16.08872032165527	11.52043151855469	15.32933235168457	12.77838134765625	14.29904365539551	13.85841178894043	15.23986339569092	19.46535110473633	12.54623413085938	13.8815393447876	15.26800632476807	14.14166259765625	14.10595798492432	18.53957176208496	13.81487846374512	18.05576324462891	14.04977512359619	14.90217781066895	11.78831005096436	16.50626945495605	15.7694673538208	16.27921867370605	16.77924728393555	21.51295280456543	15.82392406463623	14.11478900909424	15.72378921508789	15.95169734954834	13.144850730896	15.17217540740967	16.48650932312012	17.46524429321289	15.15928840637207	15.09262180328369	13.81146335601807	12.7078800201416	15.57949447631836	13.74871253967285	17.85749816894531
210	225	15.11854267120361	12.16493892669678	12.81570434570312	17.28815460205078	13.52135372161865	13.30109119415283	14.44372844696045	13.33836078643799	10.5485372543335	11.99688625335693	10.97419834136963	12.91276359558105	9.780684471130371	10.37664699554443	10.70221519470215	12.13586616516113	12.29951286315918	17.11916351318359	14.01670837402344	14.23502349853516	15.18844318389893	14.32151412963867	11.82302570343018	11.08032608032227	12.00963020324707	12.19009399414062	17.1588249206543	8.08488941192627	13.22494411468506	19.61084175109863	12.43462657928467	16.46668243408203	15.11463737487793	14.71577072143555	16.42673492431641	15.02723217010498	18.29126358032227	12.37521076202393	12.51446533203125	16.70611572265625	12.98271179199219	16.37273406982422	17.55866432189941	15.68845748901367	18.14271354675293	13.61544609069824	13.53951454162598	12.585205078125	16.53028106689453	16.67485427856445	16.45928192138672	15.6823616027832	18.13154602050781	16.81617736816406	15.50116920471191	16.38469123840332	15.8414831161499	13.06907844543457	16.752685546875	17.34542846679688	16.91885948181152	13.85394096374512	15.69970035552979	16.05719184875488	11.57778453826904	16.18799209594727	14.91761302947998	14.43568706512451	13.47839260101318	15.51244926452637	19.73098373413086	11.56948947906494	14.64955043792725	15.88207912445068	13.67803287506104	14.88122272491455	19.40629196166992	13.56752300262451	18.23123168945312	14.72810459136963	14.49339199066162	10.78158283233643	15.4178466796875	17.37714576721191	16.24134635925293	17.38165473937988	20.05978584289551	15.39504337310791	14.5416145324707	15.93481540679932	16.06500816345215	14.5404691696167	15.92835998535156	16.74798965454102	16.90283012390137	14.78115653991699	16.31449127197266	16.58010864257812	12.67352676391602	17.0985164642334	14.45695018768311	17.87472915649414
225	240	14.67131614685059	12.27270317077637	12.35074806213379	17.72650146484375	14.83617115020752	13.643874168396	14.39536762237549	10.85259628295898	11.57623195648193	11.5422945022583	10.70241641998291	12.51298522949219	16.33474731445312	9.784250259399414	10.8955249786377	12.42815017700195	13.03540515899658	17.48677253723145	13.25080585479736	11.77046489715576	15.10379028320312	11.93157577514648	12.94315528869629	8.179752349853516	15.25016975402832	11.56897258758545	14.00967407226562	8.288164138793945	13.49298477172852	16.9138126373291	10.64913558959961	16.3488712310791	15.3562707901001	14.03866863250732	17.1232738494873	16.16229438781738	18.62930107116699	9.588065147399902	14.22722721099854	16.96740341186523	13.58844566345215	15.61793422698975	18.32860374450684	15.68544387817383	18.91978645324707	13.63410949707031	14.30350208282471	11.09252738952637	16.0944709777832	16.79043769836426	14.48121070861816	15.00590705871582	20.47438621520996	17.55062294006348	15.85500621795654	15.83518600463867	17.04386520385742	13.85443210601807	16.59429550170898	16.31727027893066	16.26763534545898	14.32896614074707	16.32168388366699	15.63805198669434	9.823760986328125	16.10351181030273	14.46102809906006	18.95837783813477	13.93067646026611	16.76521873474121	19.73330879211426	11.45348739624023	14.41732025146484	15.26415538787842	15.02102088928223	15.40168380737305	17.92078971862793	15.02248764038086	18.28229904174805	13.23842144012451	14.65260219573975	13.90248489379883	16.31809234619141	16.98031997680664	17.0472526550293	16.45889282226562	19.0296688079834	16.29013442993164	16.1107292175293	16.45669364929199	16.34521675109863	12.70058822631836	16.25740432739258	16.89817810058594	17.93502235412598	14.73086452484131	15.88568305969238	14.00931644439697	13.33223533630371	17.85073661804199	14.1272029876709	18.34448337554932
