frame_start	frame_end	highbinding	left_cerebral_white_matter	left_cerebellum_white_matter	left_cerebellum_cortex	left_thalamus	left_caudate	left_putamen	left_pallidum	brain_stem	left_hippocampus	left_amygdala	csf	left_accumbens_area	left_ventraldc	left_choroid_plexus	right_cerebral_white_matter	right_cerebellum_white_matter	right_cerebellum_cortex	right_thalamus	right_caudate	right_putamen	right_pallidum	right_hippocampus	right_amygdala	right_accumbens_area	right_ventraldc	right_choroid_plexus	aircavity	skull	vermis	pons	csf_extracerebral	head_extracerebral	ctx_lh_bankssts	ctx_lh_caudalanteriorcingulate	ctx_lh_caudalmiddlefrontal	ctx_lh_cuneus	ctx_lh_entorhinal	ctx_lh_fusiform	ctx_lh_inferiorparietal	ctx_lh_inferiortemporal	ctx_lh_isthmuscingulate	ctx_lh_lateraloccipital	ctx_lh_lateralorbitofrontal	ctx_lh_lingual	ctx_lh_medialorbitofrontal	ctx_lh_middletemporal	ctx_lh_parahippocampal	ctx_lh_paracentral	ctx_lh_parsopercularis	ctx_lh_parsorbitalis	ctx_lh_parstriangularis	ctx_lh_pericalcarine	ctx_lh_postcentral	ctx_lh_posteriorcingulate	ctx_lh_precentral	ctx_lh_precuneus	ctx_lh_rostralanteriorcingulate	ctx_lh_rostralmiddlefrontal	ctx_lh_superiorfrontal	ctx_lh_superiorparietal	ctx_lh_superiortemporal	ctx_lh_supramarginal	ctx_lh_frontalpole	ctx_lh_temporalpole	ctx_lh_transversetemporal	ctx_lh_insula	ctx_rh_bankssts	ctx_rh_caudalanteriorcingulate	ctx_rh_caudalmiddlefrontal	ctx_rh_cuneus	ctx_rh_entorhinal	ctx_rh_fusiform	ctx_rh_inferiorparietal	ctx_rh_inferiortemporal	ctx_rh_isthmuscingulate	ctx_rh_lateraloccipital	ctx_rh_lateralorbitofrontal	ctx_rh_lingual	ctx_rh_medialorbitofrontal	ctx_rh_middletemporal	ctx_rh_parahippocampal	ctx_rh_paracentral	ctx_rh_parsopercularis	ctx_rh_parsorbitalis	ctx_rh_parstriangularis	ctx_rh_pericalcarine	ctx_rh_postcentral	ctx_rh_posteriorcingulate	ctx_rh_precentral	ctx_rh_precuneus	ctx_rh_rostralanteriorcingulate	ctx_rh_rostralmiddlefrontal	ctx_rh_superiorfrontal	ctx_rh_superiorparietal	ctx_rh_superiortemporal	ctx_rh_supramarginal	ctx_rh_frontalpole	ctx_rh_temporalpole	ctx_rh_transversetemporal	ctx_rh_insula	reference
0	15	0	0	0	0	0	0	0	0	0	0	0	0	0	0	0	0	0	0	0	0	0	0	0	0	0	0	0	0	0	0	0	0	0	0	0	0	0	0	0	0	0	0	0	0	0	0	0	0	0	0	0	0	0	0	0	0	0	0	0	0	0	0	0	0	0	0	0	0	0	0	0	0	0	0	0	0	0	0	0	0	0	0	0	0	0	0	0	0	0	0	0	0	0	0	0	0	0	0	0	0	0	0
15	30	0	0	0	0	0	0	0	0	0	0	0	0	0	0	0	0	0	0	0	0	0	0	0	0	0	0	0	0	0	0	0	0	0	0	0	0	0	0	0	0	0	0	0	0	0	0	0	0	0	0	0	0	0	0	0	0	0	0	0	0	0	0	0	0	0	0	0	0	0	0	0	0	0	0	0	0	0	0	0	0	0	0	0	0	0	0	0	0	0	0	0	0	0	0	0	0	0	0	0	0	0	0
30	45	0.001053261454217	7.452243266925507e-09	0	0	0	0	0	0	0	0	0	3.022533395444227e-12	0	0	0	0.0004564454429782927	0	0	0	2.708234244502838e-12	0	0	0	0	0	0	0	0	1.317516336030167e-07	0	0	2.029239112744108e-06	8.541199414402456e-10	0	0	0	0	0	0	0	0	0	0	0	0	0	0	0	0	0	0	0	0	0	0	0	0	0	0	3.670490741569665e-06	0	0	0	0	0	0	0	0	5.748272542405175e-06	9.057181159732863e-06	0	0	0	0	0	0	0	0	0	0	0	0	0	0	0	9.77034869720228e-05	0	2.173072743971716e-06	0	4.484465534915216e-06	0	0	0.005122755654156208	1.311517507929238e-07	0	0	6.473847406596178e-06	0	0	0	0	4.254239627e-06
45	60	0.315617591142654	0.2127515524625778	0.2182094901800156	0.215623214840889	0.2031882703304291	0.2441782355308533	0.31805419921875	0.361278235912323	0.2456819117069244	0.3683539927005768	0.3542360365390778	0.1992163807153702	0.0968722477555275	0.3613284826278687	0.1515259146690369	0.2078557312488556	0.2165614664554596	0.2175198197364807	0.2315383106470108	0.4795689880847931	0.2780111730098724	0.08616269379854202	0.173081710934639	0.3111492395401001	0.2541892230510712	0.3052261769771576	0.1765100657939911	0.1112122982740402	0.1109417080879211	0.219244047999382	0.2207186371088028	0.2930132746696472	0.08499100059270859	0.307035505771637	0.2441044449806213	0.3204274475574493	0.2448184043169022	0.2776979804039001	0.1810408085584641	0.1503026187419891	0.2281377911567688	0.2379592955112457	0.2242065966129303	0.3246074914932251	0.3743985593318939	0.3357488214969635	0.2429565191268921	0.3799288868904114	0.1546768546104431	0.2675198614597321	0.1732864081859589	0.3531698286533356	0.250667929649353	0.2237239480018616	0.3531107902526855	0.2358968704938889	0.2486288696527481	0.4430619478225708	0.2759835124015808	0.2207383364439011	0.1977188736200333	0.2828283309936523	0.1956675946712494	0.2083738446235657	0.2201540470123291	0.3168523907661438	0.41021728515625	0.1994012594223022	0.3907773494720459	0.2722501158714294	0.2709032893180847	0.4667166471481323	0.3492329716682434	0.2301033437252045	0.216431200504303	0.1682938635349274	0.2695983052253723	0.2133461982011795	0.2628054618835449	0.3241477012634277	0.23334601521492	0.2139643877744675	0.2037476003170013	0.5350111722946167	0.1901907026767731	0.2676541209220886	0.1340129226446152	0.1922886222600937	0.3131861388683319	0.3365365564823151	0.2321344017982483	0.1121080741286278	0.2586674690246582	0.2383365333080292	0.2686657011508942	0.3358286321163177	0.2346572726964951	0.1023552119731903	0.3166221380233765	0.4597263336181641	0.2505425810813904	0.219605311751366
60	75	1.663572788238525	1.384450197219849	1.331608295440674	2.277318954467773	1.513181924819946	1.227506756782532	1.671122431755066	1.615563869476318	1.670791268348694	2.476663827896118	1.816242933273315	1.530413627624512	1.1458820104599	1.968577742576599	2.547742605209351	1.461477041244507	1.39487087726593	2.063529491424561	1.788530468940735	1.389331459999084	1.822307825088501	1.080224990844727	2.612958431243896	1.977467894554138	1.103257536888123	2.463351964950562	1.871729612350464	1.00598680973053	1.050556659698486	2.91403341293335	1.85547935962677	3.086550712585449	1.008017539978027	2.545595407485962	2.118166923522949	1.753876209259033	2.28612494468689	1.858758568763733	2.027834177017212	1.933427572250366	1.862681746482849	2.392905950546265	2.144340753555298	1.662617921829224	3.077715396881104	2.044217348098755	1.742449045181274	2.12301778793335	1.394067883491516	2.29365062713623	1.667749643325806	2.398308992385864	2.070596694946289	2.15459156036377	2.389555931091309	1.985356688499451	1.676862478256226	1.933782935142517	1.889929056167603	1.778656959533691	1.594606161117554	2.328535079956055	2.207217216491699	1.879675626754761	1.526193737983704	2.512401580810547	3.152079343795776	2.309767246246338	3.033361911773682	1.770195007324219	3.188827514648438	1.97967267036438	1.964908599853516	1.962947368621826	1.439572095870972	2.307003021240234	2.073864459991455	2.097579479217529	2.963117837905884	2.330036640167236	1.940007448196411	2.05146336555481	1.71026337146759	2.235063314437866	2.292767286300659	2.199620723724365	2.566938400268555	2.31678032875061	1.644653916358948	1.926144361495972	1.842479705810547	3.063093662261963	1.920575976371765	2.03807258605957	1.783838510513306	2.602254867553711	2.055934190750122	1.821694850921631	1.261570453643799	4.036850929260254	3.074647426605225	2.114182472229004
75	90	3.075134992599487	2.806100368499756	2.842298984527588	5.145421504974365	3.546194553375244	2.650314807891846	3.487176656723022	3.285347938537598	3.365044832229614	3.650500059127808	2.636937379837036	3.362749338150024	3.562241792678833	3.747477293014526	6.278347492218018	2.832216024398804	2.740967750549316	4.52771520614624	3.364845991134644	2.142827987670898	3.366775989532471	2.95257306098938	4.005873680114746	3.709172964096069	3.094629526138306	3.260888814926147	5.631036281585693	2.18506121635437	2.610878467559814	6.472496032714844	3.497343778610229	6.486624240875244	2.597206115722656	3.989096641540527	4.520526885986328	3.78091287612915	5.429172039031982	4.082322120666504	3.834066390991211	3.822313547134399	4.0470871925354	5.471076488494873	5.199554920196533	3.768104553222656	5.930288314819336	3.674866914749146	3.669089794158936	3.649949550628662	3.808180570602417	4.322969436645508	4.03600549697876	3.779374837875366	5.426597595214844	4.017287254333496	3.343165397644043	3.833292007446289	4.009491920471191	4.307265281677246	3.683130264282227	3.730062484741211	3.683524608612061	4.670769214630127	4.159614086151123	4.653556823730469	2.808120012283325	4.861550331115723	4.512529850006104	4.277348041534424	4.094624042510986	3.366948366165161	5.812814712524414	3.332604169845581	3.935577392578125	3.931210517883301	3.314113616943359	4.291304111480713	4.652660846710205	3.96264386177063	5.842259883880615	3.846890926361084	3.6352379322052	3.39052939414978	3.960861682891846	4.574259757995605	2.914311408996582	3.778607130050659	5.333730220794678	4.084856986999512	3.331905603408813	4.104652881622314	3.501669406890869	4.67356538772583	4.313106536865234	3.81664514541626	4.081040859222412	4.455367565155029	4.097418308258057	4.576816558837891	3.259508848190308	5.853661060333252	4.08640718460083	4.70163893699646
90	105	4.224063396453857	3.735885620117188	3.965481042861938	6.856988906860352	5.01739501953125	3.025372982025146	4.255974769592285	4.371416568756104	4.596560955047607	5.354500770568848	3.978214502334595	4.518064975738525	5.095966339111328	4.373650550842285	6.428034782409668	3.724056243896484	3.686135768890381	6.287062168121338	4.463283538818359	3.742108106613159	4.377309799194336	3.542804479598999	5.62297248840332	4.127329349517822	4.128741264343262	3.813832998275757	9.783548355102539	3.163516759872437	3.78863263130188	8.164640426635742	3.916267871856689	8.009481430053711	3.904035329818726	4.243610858917236	5.869774341583252	4.847046375274658	6.233265399932861	6.253768920898438	5.704729557037354	5.111075401306152	4.912550926208496	5.311697959899902	6.453518867492676	4.801688194274902	7.561881542205811	4.812564849853516	5.221455574035645	4.699131011962891	4.92693042755127	7.153048992156982	4.632217884063721	5.434163093566895	6.921428680419922	5.650805950164795	4.897003173828125	5.226696014404297	4.749016284942627	5.260622501373291	5.276947021484375	4.84028959274292	4.918914318084717	5.560889720916748	5.649654865264893	7.290287017822266	3.284655094146729	6.739108085632324	6.296967506408691	4.151079177856445	6.45822811126709	4.950736999511719	6.752589225769043	5.589061260223389	5.320831775665283	4.699245929718018	4.402432441711426	7.219612598419189	6.091391563415527	5.111361503601074	7.289994239807129	4.72531795501709	5.079319477081299	4.748016834259033	4.48227071762085	5.763315677642822	4.333305835723877	4.973726272583008	6.421182155609131	4.950063705444336	4.886867523193359	5.142568111419678	5.036698818206787	5.571718215942383	5.551837921142578	4.810121059417725	4.80058479309082	5.64411449432373	5.184997081756592	5.779436588287354	5.243520736694336	8.366364479064941	5.41912841796875	6.516233205795288
105	120	5.190993309020996	4.788114070892334	5.239030361175537	8.394468307495117	5.903213500976562	3.768333435058594	5.240715026855469	4.647696495056152	6.067849636077881	6.455060958862305	5.092302799224854	5.296962261199951	5.880348205566406	5.367354393005371	13.28623962402344	4.722042560577393	4.646234035491943	7.966031074523926	6.167406558990479	4.513253211975098	5.134598731994629	5.426167011260986	5.971651554107666	5.779446601867676	6.756290912628174	5.605006217956543	11.57280921936035	3.916570425033569	5.084626197814941	10.71717166900635	4.966612815856934	9.563992500305176	5.231663703918457	5.908614635467529	8.230725288391113	6.01209831237793	7.610207080841064	8.73670768737793	6.891036033630371	6.548463821411133	5.4246506690979	9.455702781677246	8.459480285644531	6.11985445022583	8.339383125305176	6.044033527374268	6.491475582122803	5.491762638092041	5.452354907989502	7.167920112609863	5.806744575500488	6.756194591522217	9.384133338928223	6.418287754058838	5.994996547698975	6.911095142364502	6.577760696411133	6.51309871673584	6.55507755279541	6.228396892547607	5.970354557037354	6.821730136871338	6.931302547454834	8.690255165100098	5.012887954711914	8.532692909240723	6.831046581268311	6.842548847198486	6.530481815338135	6.316677093505859	9.674271583557129	6.761088371276855	6.243882656097412	6.664820671081543	6.112903594970703	7.560873031616211	7.785765647888184	6.403383731842041	8.946578979492188	6.257871150970459	6.136747360229492	4.76307201385498	6.165067195892334	7.71408748626709	6.832165241241455	5.843502521514893	9.311403274536133	6.832063674926758	5.979768753051758	6.626397132873535	5.428250312805176	6.796309947967529	6.425160884857178	6.253723621368408	6.994956016540527	7.094155788421631	6.61182689666748	8.233315467834473	5.081393241882324	8.040037155151367	6.438714981079102	8.099100828170776
120	135	6.050492763519287	5.496889114379883	5.710741996765137	9.951294898986816	6.061758041381836	5.431349277496338	6.15995454788208	5.428899765014648	5.909058094024658	6.433829784393311	5.878678321838379	6.222946166992188	5.764397144317627	6.110394954681396	11.66764163970947	5.515143394470215	5.290762901306152	8.920455932617188	6.708142757415771	5.664052963256836	5.694140911102295	4.100380420684814	7.362633228302002	6.90897274017334	7.585659980773926	5.38974142074585	11.79785823822021	4.479378700256348	5.942703247070312	10.85070037841797	6.284071922302246	10.39625072479248	6.273923397064209	8.248276710510254	7.677945137023926	7.29694128036499	8.862102508544922	6.479160785675049	7.715531826019287	7.277109146118164	6.869865894317627	9.550331115722656	9.614557266235352	6.920479774475098	10.50088024139404	6.177826404571533	7.091377258300781	6.426340103149414	6.861779689788818	8.393787384033203	6.462586879730225	7.892900466918945	10.00355052947998	7.798961639404297	6.883663177490234	7.924420833587646	6.86170768737793	7.909541606903076	7.825416088104248	7.298669815063477	7.355034828186035	7.178924560546875	7.993358135223389	8.784299850463867	6.004829883575439	10.17198085784912	7.927440166473389	8.057524681091309	8.378994941711426	7.636616230010986	11.10955142974854	5.036341667175293	6.95144510269165	7.593753814697266	6.331937313079834	8.213640213012695	8.794201850891113	6.665341377258301	10.43459320068359	7.52757740020752	7.243639945983887	5.324965000152588	7.84511661529541	7.154983043670654	6.476790428161621	8.265217781066895	10.42727851867676	7.777069091796875	6.793619155883789	7.262769222259521	7.515281677246094	6.74511194229126	7.628381729125977	7.103029251098633	7.852864742279053	7.657567501068115	7.889554977416992	8.213822364807129	5.481625080108643	8.551389694213867	7.730752944946289	9.605492115020752
135	150	6.919291496276855	5.998291015625	6.497109889984131	10.97839832305908	7.218208312988281	5.739417552947998	6.686881542205811	6.40767765045166	6.45488452911377	7.530089378356934	8.67678165435791	6.930717945098877	6.030158042907715	6.67487621307373	10.96158218383789	6.272091388702393	6.377096652984619	9.986377716064453	7.74492359161377	5.807712554931641	7.626821041107178	7.649424076080322	9.31312370300293	6.608016490936279	8.122756958007812	6.767722606658936	13.59481430053711	5.329805850982666	6.975808143615723	13.93660354614258	6.647491931915283	11.52035808563232	7.251168727874756	7.823437690734863	7.425409317016602	7.63573694229126	11.71749973297119	10.23676109313965	7.973215579986572	8.342679977416992	8.308952331542969	9.920000076293945	10.68022537231445	7.329774856567383	10.99781608581543	7.251760482788086	8.221202850341797	6.459420204162598	7.139522075653076	10.22553730010986	7.869729042053223	8.386195182800293	10.05119323730469	9.064019203186035	7.949130058288574	8.459077835083008	7.495578289031982	8.226552963256836	8.974059104919434	8.293323516845703	8.067906379699707	8.36579704284668	8.20110034942627	10.44312477111816	4.357255935668945	11.11469745635986	8.338762283325195	8.183171272277832	8.523542404174805	8.14055061340332	11.72439384460449	6.910426139831543	7.420259475708008	8.67059326171875	7.679698944091797	9.880075454711914	8.928028106689453	8.191732406616211	11.72023296356201	8.080661773681641	7.583184242248535	6.602609634399414	8.83040714263916	9.337360382080078	8.88551139831543	8.283164024353027	10.75443649291992	8.187307357788086	8.769662857055664	8.559893608093262	8.632363319396973	9.83922290802002	8.747724533081055	7.808178901672363	9.110322952270508	8.958476066589355	8.811015129089355	9.903274536132812	6.417552947998047	9.195359230041504	8.678801536560059	10.60054874420166
150	165	7.403881072998047	6.741176605224609	6.795552730560303	11.61053466796875	7.211400508880615	6.667422294616699	7.688461780548096	6.354461669921875	7.247255325317383	7.137294292449951	6.33856201171875	7.153406620025635	8.392046928405762	7.837029457092285	11.71536922454834	6.653295516967773	7.281338214874268	11.06668949127197	7.932281494140625	6.363984107971191	7.78674840927124	7.205757617950439	7.109055995941162	7.478191375732422	6.517128467559814	7.448338508605957	13.37330436706543	5.771634101867676	7.54934024810791	12.21244335174561	6.638448238372803	11.67292404174805	7.966988563537598	8.857996940612793	7.748788356781006	9.188268661499023	10.33405113220215	11.56426048278809	9.09157657623291	8.983832359313965	7.917778491973877	10.47928810119629	11.86256980895996	8.421956062316895	10.75284385681152	8.194036483764648	8.958306312561035	6.397368907928467	7.214368343353271	10.11212825775146	9.100749015808105	9.417335510253906	12.33047866821289	9.530454635620117	7.207039833068848	9.118825912475586	8.756729125976562	8.900243759155273	9.652933120727539	9.108877182006836	9.212069511413574	9.363983154296875	9.467609405517578	10.29639911651611	6.819113731384277	9.98121452331543	9.807144165039062	9.486084938049316	8.629668235778809	8.744239807128906	11.54524898529053	10.00869941711426	7.858780384063721	8.793781280517578	7.628155708312988	9.363656044006348	10.54737949371338	8.343940734863281	12.39147853851318	7.939091205596924	8.967772483825684	7.644618988037109	8.555386543273926	9.476841926574707	8.041153907775879	10.02340412139893	11.22496700286865	9.074347496032715	8.59245491027832	9.243383407592773	8.382750511169434	10.00396156311035	9.242900848388672	8.482213973999023	9.029787063598633	9.143879890441895	9.277608871459961	12.23584842681885	6.477677822113037	12.91074275970459	8.357822418212891	11.6378607749939
165	180	8.43626594543457	7.046626091003418	7.914663314819336	11.86790466308594	8.686495780944824	7.189720153808594	7.637490749359131	7.198479652404785	7.806317806243896	6.334089279174805	6.7191481590271	6.626920700073242	6.111356735229492	6.710724353790283	9.689839363098145	7.052787780761719	7.493598937988281	11.56125450134277	8.599349975585938	6.859544277191162	8.666476249694824	7.011760711669922	8.246071815490723	7.853970527648926	9.285908699035645	7.083264350891113	10.9976692199707	6.02975606918335	8.061071395874023	12.39640617370605	7.770493984222412	11.84130191802979	8.688000679016113	10.47874450683594	10.18641471862793	9.299174308776855	12.26265430450439	11.08219146728516	8.662118911743164	9.800792694091797	8.796931266784668	10.44434928894043	12.30351829528809	8.589389801025391	12.4262228012085	9.033366203308105	9.368405342102051	8.1014404296875	9.527852058410645	11.38988876342773	8.364492416381836	10.21198558807373	11.59845924377441	10.38358879089355	8.414868354797363	9.96153736114502	9.326610565185547	9.3006591796875	9.979199409484863	9.602815628051758	9.579224586486816	9.750301361083984	10.02719211578369	10.65842056274414	6.282737731933594	11.31994819641113	9.040851593017578	9.504299163818359	9.695463180541992	9.446578979492188	13.19811248779297	10.06311225891113	8.828915596008301	9.60490608215332	8.484878540039062	10.80760860443115	11.21032333374023	9.77806282043457	13.18785762786865	8.829184532165527	9.727568626403809	8.259882926940918	8.780276298522949	11.59609127044678	9.099211692810059	10.64285278320312	12.80247402191162	10.05304718017578	8.933292388916016	9.637542724609375	9.145957946777344	9.716660499572754	9.934921264648438	9.101457595825195	9.667232513427734	9.329745292663574	9.462931632995605	10.17059993743896	5.150234699249268	12.44979286193848	9.129137992858887	11.96747541427612
180	195	8.539993286132812	7.657690525054932	7.765513896942139	12.60255908966064	9.201150894165039	7.438563346862793	9.26747989654541	8.938272476196289	8.123725891113281	8.326176643371582	7.467812538146973	7.67254638671875	10.396484375	7.55743932723999	12.58691787719727	7.640353202819824	7.246521472930908	11.88866329193115	8.905912399291992	6.311544895172119	8.858172416687012	8.669403076171875	9.079511642456055	6.493083000183105	11.50252914428711	7.304812908172607	13.28720283508301	6.406099319458008	8.53803825378418	14.53604221343994	7.646333694458008	12.49368762969971	9.101876258850098	10.9544153213501	10.06777572631836	10.55274486541748	12.56978321075439	10.86981391906738	9.668153762817383	10.62975025177002	9.80967903137207	12.34318351745605	12.41269683837891	9.441447257995605	13.24323177337646	10.33953952789307	9.547598838806152	9.265812873840332	9.521873474121094	10.94781875610352	10.93570232391357	9.80880069732666	14.48961448669434	10.48885440826416	8.398382186889648	10.41364765167236	9.671024322509766	9.282430648803711	11.03973293304443	9.929600715637207	10.50439167022705	9.787670135498047	10.38731288909912	11.3200626373291	7.541913986206055	11.78189277648926	10.3800802230835	10.4622745513916	10.45713138580322	9.589497566223145	12.97675323486328	9.516962051391602	10.24560928344727	10.45893096923828	9.244228363037109	10.96965885162354	11.68399047851562	9.916709899902344	13.21255493164062	8.382378578186035	9.873473167419434	8.286014556884766	9.907853126525879	11.08689022064209	10.40758991241455	10.99219608306885	12.85343074798584	11.3285665512085	9.597309112548828	10.03794002532959	10.08914756774902	10.30284881591797	10.90427684783936	9.688019752502441	10.49190044403076	10.43948650360107	9.950263023376465	12.53237819671631	8.048070907592773	10.49011898040771	8.651871681213379	12.55216407775879
195	210	8.882464408874512	7.857193946838379	8.455409049987793	12.68166160583496	8.808555603027344	6.284119606018066	9.905641555786133	9.136310577392578	7.649487018585205	7.758614540100098	7.257609367370605	7.23096227645874	9.231352806091309	7.495112895965576	15.73553848266602	7.710156440734863	7.578433990478516	12.58741664886475	9.866602897644043	7.053652763366699	9.025884628295898	8.292601585388184	7.544014930725098	5.538804531097412	6.172031879425049	7.928383827209473	10.93975830078125	6.417075157165527	8.790501594543457	14.88490009307861	7.750110626220703	12.47688007354736	9.461779594421387	10.56473636627197	9.259150505065918	11.05014896392822	13.12022018432617	9.15462589263916	10.27544403076172	11.05036354064941	9.063780784606934	13.51656055450439	13.43573093414307	9.326512336730957	14.16352558135986	10.50247764587402	9.766040802001953	6.083068370819092	8.55701732635498	10.51024723052979	9.53935718536377	10.84587669372559	12.95637321472168	10.36797332763672	9.072103500366211	11.37416458129883	10.5607213973999	9.462142944335938	11.92219161987305	10.26813411712646	10.66698169708252	9.962067604064941	11.90484428405762	12.83307552337646	7.015083789825439	12.90981388092041	10.13761520385742	12.13168239593506	9.592809677124023	10.67938995361328	13.20038414001465	7.98943567276001	9.793115615844727	11.15651798248291	10.07001304626465	10.20803642272949	12.37731266021729	9.64777946472168	12.91591167449951	9.748348236083984	9.970783233642578	8.529553413391113	9.27936840057373	10.356369972229	7.688171863555908	11.88289356231689	13.5002613067627	10.18465614318848	10.34739208221436	10.65889263153076	10.14132499694824	10.85955142974854	11.39618015289307	10.09383201599121	10.48763370513916	10.24724769592285	10.91008853912354	9.761212348937988	7.826197624206543	12.02882766723633	10.23505878448486	13.01003837585449
210	225	9.127854347229004	8.13784122467041	7.990665912628174	13.31718158721924	8.252180099487305	7.400083065032959	10.90658569335938	7.591243267059326	8.037094116210938	8.581488609313965	6.933599472045898	7.926790237426758	6.910869121551514	9.057828903198242	14.66927242279053	8.145766258239746	8.449254035949707	12.5562219619751	10.28995132446289	6.772212505340576	8.805454254150391	9.944345474243164	7.561599731445312	7.062153339385986	7.133199691772461	8.640650749206543	16.30327987670898	6.715572834014893	9.171328544616699	14.16667747497559	7.552738666534424	12.45993328094482	9.697691917419434	9.751896858215332	9.125262260437012	11.61985492706299	12.65526008605957	11.38760757446289	10.32256126403809	11.03048610687256	10.43250560760498	11.73815059661865	13.7570915222168	9.60319995880127	13.23575782775879	10.12969303131104	9.86485481262207	7.623068332672119	10.99007701873779	10.89890098571777	10.47012329101562	10.94058990478516	15.13337898254395	11.54485893249512	9.451127052307129	11.09698486328125	10.90840244293213	8.943144798278809	11.26118469238281	10.45259189605713	11.29621315002441	11.0265474319458	10.93070983886719	12.86350059509277	6.4340500831604	11.42808723449707	9.653327941894531	12.62422847747803	8.64754581451416	9.898653030395508	14.35070705413818	8.02955150604248	10.51861381530762	11.47057247161865	9.973757743835449	10.86684226989746	11.59758853912354	8.846316337585449	13.96442985534668	10.14743232727051	10.3747091293335	9.809653282165527	10.81146144866943	11.75366687774658	10.70988082885742	10.60562610626221	13.33291912078857	11.22182655334473	9.794283866882324	10.8742151260376	10.9541540145874	9.525966644287109	11.19886112213135	10.14201545715332	10.81552696228027	10.77888774871826	10.85770034790039	11.48760890960693	8.67010498046875	12.20261096954346	9.913867950439453	13.38926553726196
225	240	10.11999416351318	8.451127052307129	9.157055854797363	13.5395336151123	10.33071613311768	8.218937873840332	9.632636070251465	9.222692489624023	8.457521438598633	8.17414665222168	6.053472518920898	7.891797065734863	7.338950634002686	7.615683555603027	12.84049797058105	8.391142845153809	8.892333984375	13.03679275512695	10.78107070922852	8.444852828979492	9.873433113098145	9.013465881347656	7.112509727478027	8.69965648651123	11.14890003204346	7.602916240692139	11.70423698425293	6.896654605865479	9.375021934509277	15.03519630432129	7.875262260437012	12.30782985687256	10.05629634857178	10.81103038787842	10.56968402862549	11.75002765655518	13.41355609893799	10.15443706512451	10.53591918945312	11.79359912872314	9.645463943481445	12.32191944122314	13.69076728820801	10.65262985229492	13.01280212402344	9.645082473754883	10.9425573348999	8.486531257629395	9.830597877502441	11.37785625457764	10.95616340637207	10.91997814178467	12.59276962280273	11.10147285461426	8.810564041137695	12.04731273651123	10.71067333221436	10.36553764343262	12.21849060058594	10.87440776824951	11.24005031585693	11.07648277282715	11.50872135162354	11.23558902740479	7.536954402923584	11.57747650146484	10.1207799911499	10.75238513946533	8.476605415344238	11.31222629547119	15.44095706939697	8.75932788848877	10.3067045211792	11.59400081634521	9.715890884399414	12.54263496398926	12.62917423248291	9.78603458404541	13.66278648376465	10.27725887298584	10.24608135223389	8.216876983642578	11.00472927093506	11.13221263885498	12.06873798370361	13.18250370025635	13.27027034759521	11.4505033493042	11.263352394104	11.57469463348389	11.78231811523438	8.969254493713379	11.73935985565186	10.2327356338501	11.06208038330078	10.77902793884277	10.77952098846436	12.08739948272705	7.495353698730469	11.13396072387695	9.211555480957031	13.77650165557861
240	270	10.14170265197754	8.552190780639648	9.326717376708984	13.52607727050781	9.526863098144531	7.98570728302002	10.35055923461914	8.91454029083252	7.913801193237305	7.619569778442383	7.959472179412842	7.808541774749756	8.260027885437012	8.291658401489258	13.7532434463501	8.613627433776855	8.47789478302002	13.30808925628662	10.52693939208984	8.002924919128418	11.11911392211914	8.843842506408691	9.098051071166992	6.880741119384766	8.086884498596191	8.156777381896973	12.01506042480469	6.774404525756836	9.5040283203125	13.95187091827393	8.093228340148926	12.34139251708984	10.23731899261475	10.50082206726074	9.460392951965332	12.22672939300537	13.88798236846924	12.08487224578857	10.8527364730835	11.65754508972168	10.29769229888916	11.61081695556641	14.03743743896484	10.70833969116211	13.43452835083008	10.51905536651611	11.1363697052002	8.136944770812988	9.779689788818359	11.97597599029541	11.64402103424072	11.26716709136963	14.17164707183838	12.08560371398926	10.03157043457031	12.13685035705566	11.50991916656494	10.39145374298096	12.51855564117432	11.15041446685791	11.03929996490479	10.64356899261475	12.30016613006592	12.4352912902832	7.839739322662354	11.43742847442627	10.82449626922607	11.49286270141602	10.1082124710083	11.83575344085693	14.5178689956665	9.122371673583984	10.64595890045166	11.99146938323975	9.85552978515625	11.71832180023193	13.33701705932617	10.21629238128662	14.1492862701416	10.37985229492188	10.73169231414795	9.786173820495605	10.82973575592041	11.68009662628174	11.78170108795166	12.73101139068604	14.77896690368652	10.89807319641113	9.010103225708008	11.32429122924805	11.20285987854004	9.850041389465332	11.75071430206299	11.01902961730957	11.6021146774292	11.40957927703857	12.10811710357666	13.30282020568848	7.321047782897949	12.16132640838623	9.906225204467773	13.97500419616699
