frame_start	frame_end	highbinding	left_cerebral_white_matter	left_cerebellum_white_matter	left_cerebellum_cortex	left_thalamus	left_caudate	left_putamen	left_pallidum	brain_stem	left_hippocampus	left_amygdala	csf	left_accumbens_area	left_ventraldc	left_choroid_plexus	right_cerebral_white_matter	right_cerebellum_white_matter	right_cerebellum_cortex	right_thalamus	right_caudate	right_putamen	right_pallidum	right_hippocampus	right_amygdala	right_accumbens_area	right_ventraldc	right_choroid_plexus	aircavity	skull	vermis	pons	csf_extracerebral	head_extracerebral	ctx_lh_bankssts	ctx_lh_caudalanteriorcingulate	ctx_lh_caudalmiddlefrontal	ctx_lh_cuneus	ctx_lh_entorhinal	ctx_lh_fusiform	ctx_lh_inferiorparietal	ctx_lh_inferiortemporal	ctx_lh_isthmuscingulate	ctx_lh_lateraloccipital	ctx_lh_lateralorbitofrontal	ctx_lh_lingual	ctx_lh_medialorbitofrontal	ctx_lh_middletemporal	ctx_lh_parahippocampal	ctx_lh_paracentral	ctx_lh_parsopercularis	ctx_lh_parsorbitalis	ctx_lh_parstriangularis	ctx_lh_pericalcarine	ctx_lh_postcentral	ctx_lh_posteriorcingulate	ctx_lh_precentral	ctx_lh_precuneus	ctx_lh_rostralanteriorcingulate	ctx_lh_rostralmiddlefrontal	ctx_lh_superiorfrontal	ctx_lh_superiorparietal	ctx_lh_superiortemporal	ctx_lh_supramarginal	ctx_lh_frontalpole	ctx_lh_temporalpole	ctx_lh_transversetemporal	ctx_lh_insula	ctx_rh_bankssts	ctx_rh_caudalanteriorcingulate	ctx_rh_caudalmiddlefrontal	ctx_rh_cuneus	ctx_rh_entorhinal	ctx_rh_fusiform	ctx_rh_inferiorparietal	ctx_rh_inferiortemporal	ctx_rh_isthmuscingulate	ctx_rh_lateraloccipital	ctx_rh_lateralorbitofrontal	ctx_rh_lingual	ctx_rh_medialorbitofrontal	ctx_rh_middletemporal	ctx_rh_parahippocampal	ctx_rh_paracentral	ctx_rh_parsopercularis	ctx_rh_parsorbitalis	ctx_rh_parstriangularis	ctx_rh_pericalcarine	ctx_rh_postcentral	ctx_rh_posteriorcingulate	ctx_rh_precentral	ctx_rh_precuneus	ctx_rh_rostralanteriorcingulate	ctx_rh_rostralmiddlefrontal	ctx_rh_superiorfrontal	ctx_rh_superiorparietal	ctx_rh_superiortemporal	ctx_rh_supramarginal	ctx_rh_frontalpole	ctx_rh_temporalpole	ctx_rh_transversetemporal	ctx_rh_insula	reference
0	15	0	0	0	0	0	0	0	0	0	0	0	0	0	0	0	0	0	0	0	0	0	0	0	0	0	0	0	0	0	0	0	0	0	0	0	0	0	0	0	0	0	0	0	0	0	0	0	0	0	0	0	0	0	0	0	0	0	0	0	0	0	0	0	0	0	0	0	0	0	0	0	0	0	0	0	0	0	0	0	0	0	0	0	0	0	0	0	0	0	0	0	0	0	0	0	0	0	0	0	0	0	0
15	30	0	0	0	0	0	0	0	0	0	0	0	0	0	0	0	0	0	0	0	0	0	0	0	0	0	0	0	0	0	0	0	0	0	0	0	0	0	0	0	0	0	0	0	0	0	0	0	0	0	0	0	0	0	0	0	0	0	0	0	0	0	0	0	0	0	0	0	0	0	0	0	0	0	0	0	0	0	0	0	0	0	0	0	0	0	0	0	0	0	0	0	0	0	0	0	0	0	0	0	0	0	0
30	45	0.013702185824513	0.005175159312784672	0	0	0.00158411543816328	8.264357531651001e-10	0.002533643273636699	8.340192835021298e-06	4.836335847357986e-06	3.664942127556969e-08	1.525311210670566e-09	0.004358370788395405	1.343032920431142e-07	0.003667431650683284	0	0.004388146102428436	0	0	0.005882618483155966	0.0001735845144139603	0.0384068638086319	5.234393896103029e-08	0	0	0	0.005030848551541567	0	7.084305252647027e-06	0.001265440136194229	0	0	0.001488402136601508	0.001059810165315866	0.0002443606499582529	0.177263155579567	0.0001309120998485014	0	0	0	0.0004010306147392839	0	0	6.193494482431561e-05	0.005388268735259771	6.225704396456422e-08	0.007739241700619459	0.001326864934526384	0	3.99176087739761e-06	0.003857597941532731	0.001486825291067362	0.0001452096767025068	8.080466784576856e-08	0.00769911939278245	0.0001339818409178406	0.02665125019848347	0.000187213416211307	8.123906525270286e-08	0.01090296451002359	0.005342929158359766	5.38976330233254e-08	4.867057214141823e-06	0.001150287571363151	0.003092739963904023	0	1.936901412591396e-07	0.00394808454439044	1.971819614254855e-07	1.450431136618135e-05	0.001990396762266755	0	0	1.458324004488532e-05	0.000510802841745317	1.597464915903402e-06	0	2.143132951459847e-05	0.0004177033843006939	5.736666821576364e-07	0.0002711387642193586	2.384470235483604e-06	0	9.686345038062427e-06	0.01138777565211058	4.599980456987396e-06	0.005524528212845325	0	7.975978223839775e-05	0	4.198664464638568e-05	0.004303992260247469	1.241637164639542e-06	0.003078688168898225	0.0005704910145141184	0.001023175776936114	0.01936076395213604	0.00637090252712369	9.196883911499754e-05	0.00012539817544166	0	0.0001049442653311417	-5.55762781e-05
45	60	0.20231494307518	0.151079848408699	0.1546615809202194	0.1541456431150436	0.2096000164747238	0.05785940587520599	0.129692941904068	0.08028427511453629	0.3152883052825928	0.2033501714468002	0.01878773421049118	0.0995560809969902	0.2849151790142059	0.2652181684970856	0.3030714690685272	0.1459174007177353	0.1161291748285294	0.1209248602390289	0.1049839109182358	0.1806477010250092	0.3405701518058777	0.07298924028873444	0.08743425458669662	0.2287507355213165	0.1081578284502029	0.149699479341507	0.03632401302456856	0.08391184359788895	0.1032186448574066	0.0812191516160965	0.2576783001422882	0.1843082755804062	0.06499833613634109	0.08990126103162766	0.2945655286312103	0.1693701446056366	0.1129853650927544	0.3533258438110352	0.1970978081226349	0.184342086315155	0.09687788784503937	0.1755138486623764	0.1022418141365051	0.2485773861408234	0.2605271935462952	0.2316154688596725	0.1576343774795532	0.334332287311554	0.3111110925674438	0.2662736773490906	0.1906324923038483	0.198644608259201	0.1752194464206696	0.1852807253599167	0.181941419839859	0.2702267169952393	0.1215700209140778	0.1604868769645691	0.1772913187742233	0.1592724472284317	0.2143029719591141	0.2055472880601883	0.1749421507120132	0.1605718284845352	0.165679544210434	0.1967330873012543	0.1780060976743698	0.1044880524277687	0.186616986989975	0.1845268458127975	0.1030651852488518	0.1212742626667023	0.1421717554330826	0.2148861885070801	0.08784765005111694	0.2201601266860962	0.1363849341869354	0.09600261598825455	0.1729720532894135	0.1493310630321503	0.1652927994728088	0.1847309470176697	0.2751504182815552	0.143119603395462	0.1861719787120819	0.1634554415941238	0.1582449078559875	0.1872665137052536	0.1836499273777008	0.1258326917886734	0.126065582036972	0.1089693978428841	0.1440436542034149	0.1387312412261963	0.145266056060791	0.2282543182373047	0.257342666387558	0.1474465131759644	0.1559523940086365	0.4143005907535553	0.1381429433822632	0.13126964867115
60	75	1.25141179561615	0.8871253132820129	0.7854262590408325	1.236834645271301	1.164012312889099	0.8619463443756104	1.587247252464294	0.9408690333366394	1.297630429267883	1.27757203578949	0.5648010969161987	1.001059174537659	1.551630854606628	1.398582696914673	1.048967480659485	0.8976144790649414	0.7019034624099731	1.118439793586731	1.328643918037415	1.032011866569519	0.9885101318359375	0.6466116309165955	1.120607018470764	1.598288536071777	1.521291613578796	1.270997762680054	1.12857723236084	0.7269047498703003	0.6720480918884277	0.7697150707244873	1.071114063262939	1.411934852600098	0.5638942122459412	1.238417506217957	1.194425463676453	1.302830338478088	1.074350595474243	0.6116997599601746	1.030124664306641	1.053534865379333	1.196153521537781	1.300935626029968	1.192753911018372	1.022588133811951	1.26737916469574	1.167309641838074	0.9589061141014099	1.256185293197632	0.911060094833374	1.411266446113586	1.251266360282898	1.125036835670471	1.004378437995911	1.228647470474243	0.9311506152153015	1.279508590698242	0.8804826736450195	0.9097537994384766	1.121710777282715	1.116793394088745	1.183040618896484	1.224666833877563	1.183404803276062	1.073480606079102	0.9019032716751099	1.314500451087952	1.457161664962769	0.7010916471481323	1.372768521308899	1.085370779037476	0.9899628758430481	1.652016997337341	1.248523950576782	1.26239275932312	0.9705923795700073	1.304752111434937	1.029814958572388	1.305460214614868	0.9791085124015808	1.053557395935059	1.182745337486267	1.162951588630676	1.227986335754395	1.347081661224365	1.084047198295593	1.226684927940369	0.8009529709815979	1.05070686340332	1.088622093200684	1.074546694755554	1.023762702941895	0.9847875237464905	1.119849681854248	1.054938197135925	1.270013689994812	1.429422616958618	1.291119813919067	1.329400300979614	1.532700181007385	1.256629347801208	1.176480650901794	1.188415467739105
75	90	2.906452894210815	2.486450910568237	2.384617805480957	3.743913888931274	3.133602142333984	2.27938437461853	2.893459320068359	1.953302383422852	3.168094635009766	3.526093244552612	2.635859489440918	2.77675724029541	2.397772073745728	3.382012367248535	4.400602340698242	2.502755880355835	2.748572826385498	3.380270004272461	3.044825553894043	2.26254940032959	2.892215251922607	2.454519748687744	2.945345640182495	3.781627893447876	1.793273448944092	3.621000289916992	4.910242557525635	2.243046045303345	1.924459457397461	3.836166381835938	1.690352201461792	4.154693603515625	1.838426470756531	3.118851184844971	3.509174346923828	3.061488151550293	3.578862190246582	3.581995248794556	3.316189765930176	3.607528924942017	3.61540961265564	3.5880126953125	3.840149402618408	2.801644086837769	4.217644691467285	2.927366018295288	3.342962026596069	3.21729588508606	3.213927268981934	4.033400535583496	3.290445804595947	3.252692937850952	3.554025650024414	3.622681379318237	3.134587287902832	3.069125175476074	2.832891464233398	2.877370357513428	3.408520460128784	2.950591802597046	3.970151662826538	3.183984994888306	3.526498794555664	2.675698041915894	3.493670701980591	3.109757661819458	2.986666440963745	3.494028329849243	3.200356721878052	2.854720592498779	3.386544227600098	2.704238891601562	2.994308710098267	3.242186069488525	2.890396118164062	3.73622727394104	3.218637943267822	3.217061042785645	3.397243022918701	3.470764875411987	3.140998840332031	3.323024272918701	3.136312246322632	3.710320711135864	3.152851343154907	3.256959438323975	3.370047330856323	3.708974361419678	3.678103685379028	3.378436088562012	2.934293508529663	2.906441926956177	3.0550537109375	3.037150859832764	3.779602766036987	4.088491439819336	3.55729079246521	2.548848390579224	4.221631050109863	4.6158447265625	3.91208291053772	3.573810338973999
90	105	5.878116607666016	4.562783241271973	5.349929332733154	7.039605617523193	6.353490352630615	4.598039150238037	5.523365497589111	4.568988800048828	6.174846172332764	5.884020805358887	4.199249744415283	5.896951675415039	5.25155782699585	7.526365756988525	10.90012264251709	4.518991470336914	5.294704914093018	6.698015689849854	6.414666652679443	4.769264698028564	6.113512992858887	3.900863647460938	5.955456256866455	6.333336353302002	8.02534008026123	6.058602333068848	6.665949821472168	4.228174686431885	3.879691600799561	6.857963562011719	5.830338001251221	8.014662742614746	3.821999073028564	5.368665218353271	5.323947429656982	5.918744564056396	6.569446563720703	4.219712734222412	5.949442863464355	6.341058731079102	7.138890266418457	8.136387825012207	8.007332801818848	6.018824577331543	7.536401748657227	5.387866973876953	5.794967651367188	6.32853364944458	5.821637153625488	6.679901599884033	5.465240001678467	5.933155536651611	7.098998546600342	6.298810482025146	5.651220321655273	6.162712574005127	6.268884658813477	5.786155223846436	5.848824501037598	5.383192539215088	7.455271244049072	6.201910972595215	6.582186222076416	5.45762825012207	5.981689453125	5.822733879089355	5.751978874206543	5.391560077667236	6.408725738525391	5.591212749481201	6.604666709899902	4.047830104827881	5.733442306518555	6.189794063568115	6.059810161590576	6.411595821380615	6.419838428497314	6.227859973907471	7.056821823120117	5.217246532440186	6.117762088775635	6.119711875915527	5.646759986877441	7.255300045013428	5.186068534851074	6.365447998046875	6.524632930755615	7.082330226898193	5.607250690460205	5.82138204574585	5.803778171539307	5.660750865936279	5.907571792602539	5.876884937286377	7.05969762802124	6.711348533630371	6.779237747192383	4.730659008026123	5.495308399200439	7.363656520843506	7.31667947769165	6.851351737976074
105	120	7.40090274810791	6.472492694854736	7.019401073455811	9.776236534118652	7.876250267028809	7.97426700592041	7.290584087371826	7.23042106628418	8.029788970947266	9.500535011291504	7.749411582946777	8.10152530670166	10.25773048400879	9.208237648010254	11.4606819152832	6.425595283508301	6.97295093536377	8.754120826721191	7.819555759429932	5.996018409729004	6.871500015258789	7.328411102294922	7.628197193145752	5.415180206298828	8.379049301147461	8.239912033081055	8.666523933410645	6.320089340209961	5.584504127502441	8.78081226348877	7.614202976226807	10.67434883117676	5.876079559326172	7.46254301071167	7.191444873809814	7.619933605194092	9.961850166320801	6.448996543884277	8.253757476806641	8.885591506958008	10.68093872070312	9.817120552062988	11.53228950500488	6.994811534881592	11.09493350982666	6.674951553344727	7.442429542541504	6.632630825042725	7.540554523468018	8.807065963745117	9.183666229248047	8.164124488830566	10.43146324157715	9.713216781616211	7.778059959411621	7.897440433502197	7.72516918182373	6.736722469329834	8.182713508605957	7.501975536346436	9.784816741943359	8.700337409973145	9.086296081542969	8.03033447265625	6.477011203765869	10.26955032348633	7.721538066864014	7.644444465637207	6.73902416229248	7.679474353790283	9.722011566162109	6.59587287902832	8.489439010620117	9.01446533203125	7.53469705581665	10.06704616546631	9.328808784484863	8.555706024169922	10.68811893463135	6.76209020614624	8.34674072265625	6.906806945800781	8.473566055297852	9.829307556152344	8.358994483947754	7.99445915222168	8.640722274780273	8.108708381652832	7.639933109283447	8.881295204162598	8.493016242980957	6.831545829772949	8.374261856079102	7.617104053497314	10.04735946655273	9.143226623535156	9.128131866455078	8.029689788818359	7.921032428741455	11.4257173538208	8.022469520568848	9.370440483093262
120	135	9.21501636505127	7.852204322814941	8.109421730041504	12.39931297302246	9.993038177490234	8.227910041809082	8.68438720703125	6.770957469940186	10.58345222473145	9.083298683166504	8.561470031738281	9.179721832275391	7.766427040100098	11.35343933105469	21.17986297607422	8.05679988861084	8.587612152099609	11.55937671661377	9.684621810913086	7.244500637054443	8.604620933532715	6.25134801864624	10.27114391326904	8.38602352142334	7.799333095550537	11.31562805175781	12.98530197143555	8.439361572265625	7.134088516235352	12.56903553009033	10.84582042694092	13.18817234039307	7.782293319702148	8.554631233215332	9.724359512329102	9.190057754516602	12.32715129852295	8.74072265625	11.39201641082764	11.73670959472656	12.38473224639893	12.65822124481201	14.92184543609619	8.607427597045898	13.28861141204834	9.372502326965332	10.37165069580078	10.30150413513184	9.730993270874023	10.94228172302246	9.952944755554199	9.125636100769043	11.31659030914307	11.78486442565918	8.813992500305176	9.891691207885742	10.81899833679199	9.508756637573242	9.404467582702637	9.537557601928711	12.31507015228271	10.58261871337891	11.31317138671875	9.201776504516602	10.34867382049561	12.085768699646	9.659998893737793	9.525099754333496	9.428954124450684	9.121785163879395	12.45961952209473	5.542430400848389	10.33174324035645	11.79682064056396	9.26434326171875	10.50894737243652	11.36856651306152	10.19028377532959	13.13018608093262	9.746374130249023	9.918158531188965	9.826556205749512	9.451655387878418	9.582722663879395	9.096474647521973	9.698189735412598	10.20631980895996	11.50174808502197	9.752643585205078	10.62231159210205	9.998915672302246	8.489510536193848	10.4924373626709	9.908720970153809	13.54451274871826	11.72594356536865	10.7561731338501	7.555474758148193	8.179471015930176	12.83072471618652	10.16161823272705	12.18858766555786
135	150	10.54047966003418	9.596868515014648	11.28530406951904	15.31265258789062	12.26179599761963	8.187904357910156	10.47537612915039	7.962847709655762	12.23038959503174	12.25624179840088	8.827482223510742	11.61014366149902	8.233609199523926	13.05294322967529	20.00881195068359	9.503311157226562	10.60595893859863	14.03896045684814	11.35812282562256	9.449348449707031	9.432622909545898	8.403541564941406	11.72012615203857	11.32303142547607	9.63360595703125	12.71916580200195	19.16234588623047	10.64190483093262	9.166773796081543	15.16532230377197	11.09418392181396	16.06375694274902	10.28340530395508	13.36532115936279	11.79253578186035	12.22056770324707	14.99616432189941	9.250935554504395	13.66886329650879	14.51474285125732	15.58826351165771	15.29593467712402	19.30204582214355	11.45954132080078	17.37428855895996	10.12287616729736	12.15666675567627	9.665960311889648	11.60821056365967	13.45002365112305	11.95490264892578	12.21606922149658	15.9324951171875	14.7258129119873	12.18358325958252	13.81350898742676	14.31317901611328	11.58870029449463	12.49567985534668	11.25868797302246	15.72206115722656	13.26829528808594	14.57506561279297	10.16854763031006	14.15594387054443	11.38338375091553	12.84911632537842	11.46457290649414	9.873160362243652	11.96986198425293	16.32750511169434	9.36979866027832	12.75388717651367	13.97991180419922	12.11770915985107	12.58523464202881	14.83175563812256	12.62539196014404	16.85367965698242	11.25989627838135	12.76824951171875	13.79000854492188	13.22094631195068	13.784104347229	11.34367370605469	13.11452007293701	15.48466682434082	14.69261932373047	11.37599086761475	12.44955825805664	13.92025852203369	9.922160148620605	13.13419151306152	11.72719764709473	14.84937953948975	14.32842636108398	13.91812324523926	11.82927894592285	10.73691272735596	16.66096687316895	12.77145862579346	14.91744041442871
150	165	9.794042587280273	9.60352897644043	10.97369575500488	15.31283569335938	11.09624099731445	8.96560001373291	9.502847671508789	9.662347793579102	11.2957067489624	10.40905570983887	10.05413818359375	10.52585029602051	10.97341060638428	13.12179660797119	17.72456169128418	9.396149635314941	10.72755241394043	14.35326480865479	11.32490062713623	8.477129936218262	8.432228088378906	7.644890785217285	9.174071311950684	9.129920959472656	8.673205375671387	11.85077857971191	15.19221019744873	11.55880260467529	9.491251945495605	13.258713722229	12.34140300750732	14.60012149810791	11.1457052230835	11.07313251495361	9.970630645751953	10.263352394104	16.05320167541504	9.851879119873047	12.96398162841797	14.97452449798584	15.78960514068604	12.92321109771729	19.12158584594727	9.435481071472168	16.49131202697754	10.04791736602783	13.19975090026855	11.85301780700684	12.16487884521484	12.80867195129395	11.14277458190918	11.77236461639404	15.63022518157959	14.40095615386963	10.13188076019287	12.2405252456665	12.25214672088623	9.358931541442871	11.73825931549072	11.76456165313721	15.59278297424316	12.68525886535645	14.06249046325684	12.29319477081299	8.86738109588623	10.7968053817749	11.31664562225342	10.98738384246826	8.158878326416016	11.42090511322021	14.26957607269287	6.824834823608398	13.26843357086182	14.99243259429932	11.85512256622314	11.93370342254639	14.52044868469238	11.22818660736084	16.11161804199219	10.65367794036865	11.26369190216064	10.2181510925293	13.5310640335083	12.35806560516357	11.12388324737549	12.78389358520508	15.79374599456787	13.15181255340576	10.57129287719727	12.46402359008789	12.36939716339111	11.22117328643799	12.27746295928955	11.40812587738037	15.27126979827881	13.07629489898682	13.52324104309082	10.42642211914062	8.644753456115723	14.76203632354736	11.00760555267334	15.39031457901001
165	180	11.29263114929199	10.1416540145874	11.78341293334961	15.57034015655518	12.30601692199707	9.52491569519043	11.63267707824707	9.950154304504395	12.78270721435547	12.33506965637207	11.44704055786133	9.819279670715332	9.521949768066406	13.51627731323242	19.68156814575195	10.12157154083252	12.30270099639893	13.69039726257324	11.56424713134766	7.644051551818848	11.3963794708252	8.008664131164551	11.14821624755859	8.059313774108887	12.49648857116699	10.26192378997803	15.67506313323975	12.0128116607666	9.884284019470215	14.03872776031494	10.01108360290527	14.32089710235596	11.80471706390381	12.16782665252686	12.16392993927002	12.24874687194824	16.16246032714844	9.807977676391602	14.81704998016357	15.06089305877686	15.63669586181641	14.37130165100098	18.53822708129883	10.32595825195312	18.21210098266602	10.34248638153076	12.35685253143311	13.05389022827148	12.30061626434326	13.12944984436035	12.65158653259277	13.41628170013428	16.3010139465332	14.78500366210938	12.34617614746094	13.23543739318848	14.05859851837158	9.08989429473877	12.72192287445068	11.87352275848389	16.51633644104004	13.68720245361328	15.3674201965332	10.8023157119751	10.79041004180908	13.9569149017334	10.84016227722168	13.13089847564697	10.4634895324707	12.39241790771484	17.10651779174805	8.777702331542969	13.03602695465088	14.89316177368164	11.92644596099854	11.76102828979492	15.58656024932861	12.79325771331787	15.12217807769775	11.93914985656738	11.87361907958984	9.605712890625	12.31122398376465	13.68861961364746	11.2537899017334	13.33414459228516	17.53299331665039	14.9674654006958	10.80893039703369	14.08846187591553	13.68903732299805	10.40021133422852	13.1242036819458	11.73078441619873	16.65966796875	13.06672954559326	14.35880470275879	10.2960729598999	8.224384307861328	14.42790222167969	12.25845050811768	15.04906320571899
180	195	10.99937725067139	10.47492027282715	11.47375297546387	15.4844970703125	11.91413116455078	9.001609802246094	12.55621242523193	10.73797035217285	10.48553848266602	10.51773166656494	8.554232597351074	10.79761600494385	12.38382720947266	11.16199970245361	23.41432762145996	10.28990268707275	12.53822231292725	14.77608585357666	12.70422744750977	8.346976280212402	9.536927223205566	9.515233039855957	11.04831981658936	11.66237926483154	10.85367488861084	12.59341812133789	17.02444839477539	13.04541683197021	10.41291236877441	14.82286834716797	9.71060848236084	13.95307445526123	12.40157318115234	11.79158592224121	9.051067352294922	11.65898036956787	16.60485076904297	11.22142696380615	14.26288986206055	16.04437255859375	14.76506233215332	14.80129814147949	18.04720306396484	10.70546627044678	16.2370719909668	10.3109073638916	12.65712833404541	9.520371437072754	12.47028732299805	14.62273120880127	13.85432815551758	12.14127731323242	17.81937980651855	15.26792430877686	10.64943790435791	13.6080961227417	13.86044597625732	9.097393035888672	13.58342456817627	12.18405723571777	16.96077156066895	13.21801280975342	15.46778011322021	10.51111602783203	11.09576320648193	13.3548059463501	11.49913120269775	12.99760246276855	8.877320289611816	13.77873420715332	15.81502151489258	9.141035079956055	12.7700834274292	15.58021640777588	11.33487415313721	13.17600631713867	15.59814071655273	11.53420734405518	15.98207378387451	11.51649951934814	11.90193557739258	9.925689697265625	13.27315139770508	13.1421947479248	10.73014068603516	13.98561191558838	14.2448787689209	14.31139755249023	11.82931137084961	13.13143920898438	13.88504505157471	10.387375831604	13.09968566894531	11.84234619140625	15.85977268218994	13.27184677124023	14.12320613861084	9.186703681945801	8.409261703491211	15.47541046142578	11.93514347076416	15.82893323898315
195	210	11.05642127990723	10.57406520843506	10.57004928588867	14.81148624420166	11.00973415374756	9.760842323303223	11.88995456695557	8.979186058044434	10.86684703826904	10.29984760284424	11.07794189453125	10.35669994354248	9.753273963928223	12.65789127349854	15.16089725494385	10.25769901275635	10.89472770690918	13.25638294219971	10.8200511932373	8.69016170501709	11.56585121154785	10.72552394866943	11.24901390075684	10.29435157775879	12.69312572479248	10.47063446044922	14.62511444091797	12.71629810333252	10.25159168243408	15.21091651916504	11.19455623626709	13.64811420440674	12.30701541900635	11.883713722229	9.831327438354492	12.16443061828613	15.92514991760254	8.289706230163574	14.04180431365967	15.70602512359619	14.64899730682373	12.43427467346191	18.50027084350586	10.86602210998535	16.50408935546875	10.35842895507812	12.95887279510498	12.31738948822021	12.71089839935303	13.10904216766357	12.44740772247314	12.95698165893555	16.47941017150879	15.28023242950439	11.12309169769287	13.2795295715332	13.39485931396484	10.35197162628174	12.90906143188477	12.28743457794189	17.03022575378418	13.48878479003906	15.21738338470459	11.44008922576904	11.44158172607422	12.61814975738525	11.82718276977539	11.77693843841553	9.512539863586426	12.6933012008667	15.9626579284668	7.061465740203857	13.30496692657471	15.68921089172363	12.41405773162842	11.63722515106201	15.7136116027832	11.66993141174316	15.35687065124512	11.53188991546631	11.37377071380615	11.33491992950439	12.91324996948242	12.97615337371826	12.2485408782959	13.27665901184082	15.55458450317383	14.66754817962646	10.3160924911499	12.7810230255127	12.32529449462891	11.71601867675781	12.85036563873291	11.64443778991699	16.5379753112793	13.08338165283203	14.31809139251709	7.856871128082275	8.03190803527832	13.82894802093506	11.49475193023682	14.48806762695312
210	225	11.67934036254883	10.86488056182861	12.94726276397705	15.7045259475708	12.98247241973877	9.858829498291016	12.58997249603271	10.48861598968506	12.23993968963623	11.25899410247803	10.78825759887695	10.3786506652832	12.26914310455322	12.31397247314453	17.34793472290039	10.61956405639648	11.67687511444092	14.57615375518799	12.37636661529541	8.996545791625977	10.43101406097412	10.31452083587646	9.763490676879883	11.59135627746582	11.36356830596924	10.86964416503906	13.15466976165771	12.95284843444824	10.5484094619751	15.21060562133789	11.81540966033936	13.83208465576172	12.87075042724609	13.92044258117676	10.02572441101074	12.68719100952148	17.48001098632812	8.768095016479492	13.50670623779297	16.58389282226562	14.47819423675537	13.0268383026123	19.19897270202637	11.19413757324219	18.30481147766113	10.52194213867188	12.75665855407715	11.07596778869629	14.53943824768066	13.90539932250977	12.75405406951904	13.13090705871582	17.50172233581543	14.9231481552124	10.41124439239502	14.48278045654297	13.91491317749023	10.86054706573486	13.64799022674561	12.77904224395752	16.68714904785156	13.99922943115234	16.01062393188477	11.68195533752441	11.27316093444824	13.44878196716309	11.99716854095459	12.83395671844482	7.765329360961914	13.64437484741211	18.06401252746582	8.564697265625	13.8806848526001	15.78662586212158	11.83962059020996	11.9517650604248	16.18511772155762	12.31992244720459	15.87246036529541	11.89260101318359	12.61138439178467	12.23252582550049	13.80131530761719	13.80554580688477	14.42572498321533	12.92184066772461	14.67435646057129	13.62632942199707	11.92140769958496	13.4943733215332	14.49918365478516	10.53380298614502	14.4040470123291	12.24797534942627	16.66686248779297	13.8029727935791	14.9617748260498	10.20529842376709	9.135743141174316	17.16799736022949	12.49009799957275	15.68863821029663
225	240	11.16460990905762	11.31096458435059	12.32815742492676	16.04133796691895	12.16318225860596	9.442768096923828	12.01021480560303	9.403642654418945	11.51083660125732	9.969199180603027	9.193392753601074	10.29223155975342	13.70094776153564	12.7201509475708	17.97853851318359	11.04127216339111	12.45250511169434	15.89352798461914	11.45517158508301	8.522096633911133	11.21635913848877	10.21740245819092	9.971139907836914	11.79490375518799	8.032235145568848	9.881942749023438	12.34480381011963	13.63605690002441	10.80567646026611	17.59106636047363	11.36845397949219	14.11275863647461	13.37296009063721	14.50308227539062	11.68167400360107	12.33524703979492	17.51086044311523	10.8529052734375	14.51609325408936	16.80956649780273	15.36040687561035	13.50266361236572	18.39925765991211	11.88350963592529	17.7877140045166	10.7080717086792	14.12891483306885	10.31311321258545	15.08961772918701	14.53889465332031	13.89615631103516	13.38500118255615	19.29780769348145	16.64419937133789	11.93178653717041	14.49916744232178	13.57852077484131	9.527057647705078	14.18760776519775	12.29452705383301	16.85195159912109	14.4744758605957	15.68800926208496	14.11488056182861	10.55130958557129	15.43421459197998	13.18076515197754	16.34811592102051	10.04144954681396	14.08172512054443	17.81695365905762	7.020370960235596	13.92044448852539	17.23956680297852	13.79034996032715	12.88155937194824	17.32053184509277	12.11867237091064	16.47796249389648	11.60653877258301	14.91388988494873	10.48028564453125	13.20113468170166	14.94381713867188	14.36289978027344	12.56354331970215	16.90881729125977	15.37079906463623	11.62709045410156	14.80921840667725	14.81307888031006	10.60095596313477	14.25030422210693	12.720627784729	17.4018497467041	13.85559749603271	15.49233722686768	10.94563770294189	10.60888004302979	16.45107460021973	12.95911979675293	16.61026573181152
240	270	12.44781112670898	11.15225505828857	12.23666286468506	16.64801788330078	14.13528728485107	11.70235919952393	11.68124103546143	10.26455879211426	11.63616466522217	11.27353286743164	11.54164695739746	9.94975471496582	12.54432106018066	12.55412292480469	20.24105644226074	11.01461219787598	12.81997966766357	15.743727684021	11.45134162902832	9.264978408813477	12.23330688476562	10.09231472015381	11.02433681488037	11.79205703735352	13.56538581848145	11.77690601348877	13.70244216918945	13.63658618927002	10.49860382080078	15.98315811157227	11.23018264770508	13.79610443115234	13.45814895629883	14.22195339202881	11.27996063232422	13.54476928710938	16.57155418395996	8.923703193664551	14.91888236999512	17.33094787597656	14.49745655059814	15.34296607971191	18.7001838684082	10.97783279418945	17.26032257080078	12.26442337036133	14.65165042877197	10.01582145690918	14.19514560699463	14.06176948547363	13.80863952636719	13.53589630126953	16.6861515045166	15.73938941955566	13.21211719512939	14.76446914672852	14.62320804595947	10.22853469848633	14.49656105041504	12.90468215942383	16.99901390075684	14.58440208435059	16.26717758178711	10.61466503143311	11.98426246643066	15.23846626281738	11.64056015014648	14.70629787445068	10.09091091156006	13.59106731414795	17.75407981872559	8.723276138305664	13.33173847198486	16.75477600097656	12.52319812774658	14.38849449157715	16.55550003051758	12.81434726715088	16.32159614562988	12.45250701904297	12.84173107147217	11.06897830963135	13.50863075256348	13.46013736724854	13.20789241790771	13.89237213134766	16.68523216247559	15.18231582641602	12.66098403930664	14.45514297485352	15.65851020812988	11.00962448120117	14.95472812652588	12.84104442596436	17.31672477722168	13.79359722137451	16.16795921325684	13.23219871520996	12.43772506713867	15.12508583068848	12.81282711029053	17.13635635375977
